# EXFOR #         : 13774.002  
# EXFOR Ver.      : 20010926
# TRANS #         : 0000
# Author          : S.Raman et al.
# Reference       : Progress report ORNL-5025 page 110, 1975
# DOI             : N/A
# Quantity        : 59Ni(n,tot) cross section
# REACTION        : 28-NI-59(N,TOT),,SIG
# File ID         : n-Ni59-tot-sig-excfun-mon-Raman_1975_13774.002
#
# npts            : 1628        
# xmin            :   3.3090E-01
# xmax            :   1.4817E+05
# ymin            :   1.0385E-02
# ymax            :   2.8554E+03
#
#---------------------------------------------------
# Einc        dEinc       sig         dsig        
#  eV          eV          b           b          
#---------------------------------------------------
  1.4817E+05  0.0000E+00  3.2798E+00  5.5684E+00
  1.3813E+05  0.0000E+00  1.7227E+01  5.8022E+00
  1.2907E+05  0.0000E+00  1.2276E+01  5.5774E+00
  1.2088E+05  0.0000E+00  1.0677E+01  6.2255E+00
  1.1344E+05  0.0000E+00  1.7481E+00  6.4325E+00
  1.0667E+05  0.0000E+00  1.5574E+01  6.4627E+00
  1.0048E+05  0.0000E+00  9.0700E+00  6.7230E+00
  9.4824E+04  0.0000E+00  1.2171E+01  7.0290E+00
  8.0441E+04  0.0000E+00  3.8151E+00  7.4072E+00
  7.6369E+04  0.0000E+00  6.7864E+00  7.9808E+00
  7.2598E+04  0.0000E+00  1.0223E+00  7.3499E+00
  6.9100E+04  0.0000E+00  5.7131E+00  7.4607E+00
  6.5848E+04  0.0000E+00  8.7408E+00  7.5649E+00
  6.2821E+04  0.0000E+00  7.2411E+00  7.5908E+00
  5.9998E+04  0.0000E+00  1.1553E+01  7.2479E+00
  5.7361E+04  0.0000E+00  1.9730E+01  7.0966E+00
  5.0415E+04  0.0000E+00  1.4084E+01  7.9639E+00
  4.8378E+04  0.0000E+00  1.4299E+01  7.9600E+00
  4.6462E+04  0.0000E+00  1.6072E+01  8.1025E+00
  4.4658E+04  0.0000E+00  1.4658E+01  8.1727E+00
  4.2957E+04  0.0000E+00  9.5835E-01  8.4182E+00
  4.1351E+04  0.0000E+00  1.8804E+01  8.7704E+00
  3.9834E+04  0.0000E+00  1.6444E+01  8.3457E+00
  3.8398E+04  0.0000E+00  1.3023E+01  8.4717E+00
  3.7039E+04  0.0000E+00  8.9013E+00  9.1094E+00
  3.5751E+04  0.0000E+00  1.6652E+01  9.8264E+00
  3.4529E+04  0.0000E+00  2.5344E+01  1.0072E+01
  3.3368E+04  0.0000E+00  5.8682E+00  9.2044E+00
  3.2265E+04  0.0000E+00  2.4346E+01  8.7023E+00
  3.1216E+04  0.0000E+00  6.3238E+00  8.5840E+00
  3.0217E+04  0.0000E+00  5.8462E+00  8.5348E+00
  2.9266E+04  0.0000E+00  1.5038E+01  8.6815E+00
  2.8358E+04  0.0000E+00  1.9692E+01  8.6245E+00
  2.7492E+04  0.0000E+00  9.0578E+00  8.6505E+00
  2.5876E+04  0.0000E+00  5.5022E+00  8.6800E+00
  2.4397E+04  0.0000E+00  1.2382E+01  8.7458E+00
  2.3705E+04  0.0000E+00  5.7725E+00  8.7911E+00
  2.3064E+04  0.0000E+00  1.8429E+01  9.1889E+00
  2.2741E+04  0.0000E+00  9.9557E+00  3.4316E+01
  2.2699E+04  0.0000E+00  4.3726E+00  3.4444E+01
  2.2657E+04  0.0000E+00  4.1391E+00  3.4607E+01
  2.2615E+04  0.0000E+00  3.2762E+01  3.4867E+01
  2.2573E+04  0.0000E+00  4.5503E+01  3.4207E+01
  2.2531E+04  0.0000E+00  1.5569E+01  3.4057E+01
  2.2489E+04  0.0000E+00  5.4694E+00  3.4444E+01
  2.2447E+04  0.0000E+00  1.9060E+01  3.4464E+01
  2.2364E+04  0.0000E+00  2.4636E+01  3.3970E+01
  2.2282E+04  0.0000E+00  6.6786E+01  3.4619E+01
  2.2159E+04  0.0000E+00  3.6530E+01  3.4557E+01
  2.2118E+04  0.0000E+00  1.7112E+01  3.4127E+01
  2.2077E+04  0.0000E+00  3.6565E+01  3.4644E+01
  2.1996E+04  0.0000E+00  3.4316E+01  3.4497E+01
  2.1956E+04  0.0000E+00  4.7121E+01  3.4736E+01
  2.1916E+04  0.0000E+00  2.1123E+01  3.4705E+01
  2.1876E+04  0.0000E+00  1.0405E+01  3.4396E+01
  2.1756E+04  0.0000E+00  2.8843E+01  3.4635E+01
  2.1717E+04  0.0000E+00  1.7935E+01  3.4489E+01
  2.1638E+04  0.0000E+00  7.2768E+01  3.4389E+01
  2.1520E+04  0.0000E+00  9.2562E+01  3.4615E+01
  2.1481E+04  0.0000E+00  1.3155E+01  3.4357E+01
  2.1442E+04  0.0000E+00  9.7665E+01  3.4382E+01
  2.1403E+04  0.0000E+00  2.7763E+01  3.4557E+01
  2.1365E+04  0.0000E+00  3.7690E+01  3.4687E+01
  2.1326E+04  0.0000E+00  1.1627E+02  3.4970E+01
  2.1288E+04  0.0000E+00  5.3493E+01  3.5338E+01
  2.1249E+04  0.0000E+00  1.0269E+02  3.5065E+01
  2.1211E+04  0.0000E+00  9.0691E+01  3.5336E+01
  2.1173E+04  0.0000E+00  3.5115E+01  3.5154E+01
  2.1135E+04  0.0000E+00  6.3869E+01  3.5368E+01
  2.1097E+04  0.0000E+00  6.3781E+01  3.5036E+01
  2.1059E+04  0.0000E+00  1.1333E+01  3.5137E+01
  2.0984E+04  0.0000E+00  3.7592E+01  3.5588E+01
  2.0946E+04  0.0000E+00  6.5919E+01  3.4983E+01
  2.0871E+04  0.0000E+00  5.5333E+00  3.5238E+01
  2.0834E+04  0.0000E+00  3.4514E+01  3.5041E+01
  2.0723E+04  0.0000E+00  7.6828E+01  3.4871E+01
  2.0686E+04  0.0000E+00  6.7440E+01  3.4658E+01
  2.0649E+04  0.0000E+00  6.7022E+01  3.4468E+01
  2.0613E+04  0.0000E+00  4.2523E+01  3.5195E+01
  2.0576E+04  0.0000E+00  2.8501E+00  3.4764E+01
  2.0539E+04  0.0000E+00  7.7384E+01  3.4867E+01
  2.0503E+04  0.0000E+00  9.1822E+01  3.5011E+01
  2.0431E+04  0.0000E+00  1.0104E+01  3.5246E+01
  2.0395E+04  0.0000E+00  1.5324E+01  3.5123E+01
  2.0359E+04  0.0000E+00  1.0761E+00  3.5193E+01
  2.0287E+04  0.0000E+00  1.1903E+01  3.4589E+01
  2.0251E+04  0.0000E+00  2.3587E+00  3.4734E+01
  2.0216E+04  0.0000E+00  4.4254E+01  3.4567E+01
  2.0180E+04  0.0000E+00  4.1949E-01  3.4906E+01
  2.0109E+04  0.0000E+00  2.7784E+01  3.4952E+01
  2.0039E+04  0.0000E+00  1.9933E+01  3.4970E+01
  2.0004E+04  0.0000E+00  3.5155E+01  3.5200E+01
  1.9969E+04  0.0000E+00  3.3405E+00  3.5202E+01
  1.9899E+04  0.0000E+00  2.7195E+01  3.5245E+01
  1.9865E+04  0.0000E+00  9.1922E-01  3.5294E+01
  1.9796E+04  0.0000E+00  2.0770E+01  3.5593E+01
  1.9761E+04  0.0000E+00  3.4050E+01  3.5309E+01
  1.9659E+04  0.0000E+00  2.0668E+01  3.5821E+01
  1.9624E+04  0.0000E+00  6.6829E+01  3.5402E+01
  1.9590E+04  0.0000E+00  5.2289E+01  3.5265E+01
  1.9557E+04  0.0000E+00  1.7375E+01  3.5471E+01
  1.9489E+04  0.0000E+00  9.0891E+01  3.5720E+01
  1.9456E+04  0.0000E+00  7.9284E+01  3.5541E+01
  1.9125E+04  0.0000E+00  2.9279E+00  9.1598E+00
  1.8643E+04  0.0000E+00  6.6766E+00  9.2107E+00
  1.7733E+04  0.0000E+00  7.6126E+00  9.3167E+00
  1.6888E+04  0.0000E+00  3.1914E+01  9.6855E+00
  1.6488E+04  0.0000E+00  9.3681E+00  9.5301E+00
  1.6102E+04  0.0000E+00  1.1908E+01  9.4917E+00
  1.5730E+04  0.0000E+00  3.0983E+00  9.4934E+00
  1.5370E+04  0.0000E+00  2.3455E+01  9.5657E+00
  1.5022E+04  0.0000E+00  4.3845E+01  9.6214E+00
  1.4687E+04  0.0000E+00  2.2767E+01  9.5682E+00
  1.4362E+04  0.0000E+00  1.3260E+01  9.5966E+00
  1.4048E+04  0.0000E+00  1.1238E+01  9.6366E+00
  1.3450E+04  0.0000E+00  1.8691E+01  9.6488E+00
  1.3165E+04  0.0000E+00  5.4848E+00  9.8060E+00
  1.2622E+04  0.0000E+00  1.5459E+00  9.7589E+00
  1.2362E+04  0.0000E+00  3.3589E+01  9.8153E+00
  1.2111E+04  0.0000E+00  9.3246E+00  9.9008E+00
  1.1868E+04  0.0000E+00  4.0399E+00  9.8270E+00
  1.1631E+04  0.0000E+00  5.0081E+01  9.9218E+00
  1.1402E+04  0.0000E+00  1.4144E+01  9.8562E+00
  1.1179E+04  0.0000E+00  1.0060E+01  9.8866E+00
  1.0753E+04  0.0000E+00  9.9075E+00  9.8848E+00
  1.0549E+04  0.0000E+00  8.2252E+00  9.8701E+00
  1.0351E+04  0.0000E+00  1.9857E+01  9.8583E+00
  1.0159E+04  0.0000E+00  2.4563E+00  9.9284E+00
  9.9711E+03  0.0000E+00  8.0982E+00  9.9168E+00
  9.7889E+03  0.0000E+00  1.1686E+01  9.9193E+00
  9.6936E+03  0.0000E+00  4.8402E+01  3.8478E+01
  9.6583E+03  0.0000E+00  7.4341E+01  3.8278E+01
  9.6465E+03  0.0000E+00  1.4939E+01  3.8807E+01
  9.6348E+03  0.0000E+00  6.9002E+01  3.8613E+01
  9.6231E+03  0.0000E+00  4.3772E+01  3.8638E+01
  9.5998E+03  0.0000E+00  1.8147E+01  3.8027E+01
  9.5882E+03  0.0000E+00  3.3558E+00  3.8705E+01
  9.5534E+03  0.0000E+00  2.8100E+01  3.7494E+01
  9.5304E+03  0.0000E+00  1.4413E+01  3.7710E+01
  9.5074E+03  0.0000E+00  6.6765E+00  3.8795E+01
  9.4845E+03  0.0000E+00  7.0863E+01  3.8223E+01
  9.4731E+03  0.0000E+00  7.7429E+01  3.8442E+01
  9.4617E+03  0.0000E+00  2.7391E+01  3.8245E+01
  9.4503E+03  0.0000E+00  7.5825E+01  3.9488E+01
  9.4390E+03  0.0000E+00  9.0390E+00  3.8511E+01
  9.4276E+03  0.0000E+00  4.1009E+01  3.8600E+01
  9.4163E+03  0.0000E+00  3.2859E+01  3.8768E+01
  9.3938E+03  0.0000E+00  1.5795E+01  3.8570E+01
  9.3713E+03  0.0000E+00  3.0116E+01  3.8902E+01
  9.3601E+03  0.0000E+00  3.7482E+01  3.8333E+01
  9.3489E+03  0.0000E+00  6.9760E+01  3.8976E+01
  9.3265E+03  0.0000E+00  7.6072E+01  3.9290E+01
  9.3043E+03  0.0000E+00  3.6471E+01  3.9193E+01
  9.2932E+03  0.0000E+00  4.1753E+00  4.0307E+01
  9.2821E+03  0.0000E+00  2.2828E+01  4.0122E+01
  9.2711E+03  0.0000E+00  1.0731E+02  3.9881E+01
  9.2600E+03  0.0000E+00  3.3984E+01  4.0497E+01
  9.2490E+03  0.0000E+00  1.3248E+02  4.0261E+01
  9.2380E+03  0.0000E+00  1.2195E+02  3.9904E+01
  9.2271E+03  0.0000E+00  8.2392E+01  4.0073E+01
  9.2052E+03  0.0000E+00  1.1147E+02  3.9831E+01
  9.1834E+03  0.0000E+00  9.0213E+01  3.9065E+01
  9.1725E+03  0.0000E+00  1.1890E+02  4.0196E+01
  9.1616E+03  0.0000E+00  8.6896E+01  4.0102E+01
  9.1508E+03  0.0000E+00  1.2342E+02  4.0058E+01
  9.1400E+03  0.0000E+00  1.5627E+01  3.9935E+01
  9.1292E+03  0.0000E+00  1.3838E+02  3.9079E+01
  9.1184E+03  0.0000E+00  6.0571E+01  3.9728E+01
  9.1076E+03  0.0000E+00  8.8932E+01  3.9557E+01
  9.0969E+03  0.0000E+00  9.7892E+01  3.9665E+01
  9.0862E+03  0.0000E+00  3.5742E+01  3.8951E+01
  9.0755E+03  0.0000E+00  9.4214E+01  3.9210E+01
  9.0648E+03  0.0000E+00  5.9418E+01  3.8991E+01
  9.0541E+03  0.0000E+00  3.7231E+01  3.9187E+01
  9.0435E+03  0.0000E+00  1.8965E+01  3.9162E+01
  9.0222E+03  0.0000E+00  6.4128E+01  3.9292E+01
  9.0116E+03  0.0000E+00  2.1352E+01  3.8473E+01
  9.0010E+03  0.0000E+00  2.8810E+01  3.8232E+01
  8.9905E+03  0.0000E+00  3.4871E+01  3.8355E+01
  8.9694E+03  0.0000E+00  1.0708E+02  3.8743E+01
  8.9589E+03  0.0000E+00  8.6487E-01  3.9064E+01
  8.9380E+03  0.0000E+00  4.1582E+00  3.9220E+01
  8.8963E+03  0.0000E+00  7.2737E+01  3.9037E+01
  8.8550E+03  0.0000E+00  3.6375E+01  3.8797E+01
  8.8447E+03  0.0000E+00  1.2669E+01  4.0001E+01
  8.8344E+03  0.0000E+00  4.9084E+01  3.9093E+01
  8.8139E+03  0.0000E+00  7.0527E+01  3.8981E+01
  8.7934E+03  0.0000E+00  2.0302E+01  3.9324E+01
  8.7731E+03  0.0000E+00  8.3852E+00  3.9206E+01
  8.7528E+03  0.0000E+00  2.9506E+01  3.9847E+01
  8.7426E+03  0.0000E+00  7.9489E+01  3.8691E+01
  8.7325E+03  0.0000E+00  2.7371E+01  3.9298E+01
  8.7225E+03  0.0000E+00  7.0067E+01  3.9098E+01
  8.6426E+03  0.0000E+00  1.5984E+01  1.0113E+01
  8.3519E+03  0.0000E+00  2.1077E+01  1.0333E+01
  8.2121E+03  0.0000E+00  4.6478E+00  1.0174E+01
  8.0757E+03  0.0000E+00  1.1346E+01  1.0261E+01
  7.9427E+03  0.0000E+00  4.4477E+00  1.0297E+01
  7.8130E+03  0.0000E+00  2.2635E+01  1.0282E+01
  7.6864E+03  0.0000E+00  3.4680E+01  1.0238E+01
  7.5628E+03  0.0000E+00  2.0351E+01  1.0287E+01
  7.4423E+03  0.0000E+00  4.2806E+00  1.0333E+01
  7.3245E+03  0.0000E+00  2.9784E+01  1.0328E+01
  7.2096E+03  0.0000E+00  1.8525E+01  1.0411E+01
  7.0973E+03  0.0000E+00  1.4908E+01  1.0392E+01
  7.0311E+03  0.0000E+00  3.4580E+01  4.0001E+01
  7.0238E+03  0.0000E+00  1.1850E+02  3.9014E+01
  7.0166E+03  0.0000E+00  9.6160E+01  4.0033E+01
  7.0093E+03  0.0000E+00  8.0788E+01  4.0322E+01
  6.9876E+03  0.0000E+00  8.9274E+01  4.1199E+01
  6.9803E+03  0.0000E+00  1.5156E+01  4.0587E+01
  6.9659E+03  0.0000E+00  1.9568E+01  4.0825E+01
  6.9444E+03  0.0000E+00  8.5603E+00  4.0401E+01
  6.9301E+03  0.0000E+00  3.7128E+01  4.0874E+01
  6.9230E+03  0.0000E+00  5.1421E+01  4.1368E+01
  6.9159E+03  0.0000E+00  4.4421E+01  4.0414E+01
  6.9087E+03  0.0000E+00  9.1062E+01  4.0770E+01
  6.9017E+03  0.0000E+00  7.5245E+01  4.0497E+01
  6.8946E+03  0.0000E+00  4.6588E+01  4.0325E+01
  6.8875E+03  0.0000E+00  5.8215E+01  4.1187E+01
  6.8804E+03  0.0000E+00  5.1270E+01  4.0518E+01
  6.8734E+03  0.0000E+00  1.7447E+01  4.0551E+01
  6.8663E+03  0.0000E+00  1.3515E+00  4.0771E+01
  6.8593E+03  0.0000E+00  5.3791E+01  4.0735E+01
  6.8523E+03  0.0000E+00  2.2799E+01  4.0296E+01
  6.8453E+03  0.0000E+00  8.6659E+01  4.0033E+01
  6.8383E+03  0.0000E+00  3.7210E+01  4.1031E+01
  6.8313E+03  0.0000E+00  4.1401E+01  4.0331E+01
  6.8243E+03  0.0000E+00  6.5389E+01  4.0018E+01
  6.8173E+03  0.0000E+00  4.2548E+00  4.0278E+01
  6.8034E+03  0.0000E+00  3.7785E+01  4.0571E+01
  6.7965E+03  0.0000E+00  4.0438E+01  3.9946E+01
  6.7896E+03  0.0000E+00  9.7970E+01  4.0563E+01
  6.7826E+03  0.0000E+00  7.5275E+01  4.0175E+01
  6.7757E+03  0.0000E+00  6.5896E+01  4.1129E+01
  6.7688E+03  0.0000E+00  1.0040E+02  4.0398E+01
  6.7620E+03  0.0000E+00  7.1517E+01  4.0140E+01
  6.7551E+03  0.0000E+00  1.5517E+01  4.0106E+01
  6.7482E+03  0.0000E+00  6.0183E+01  4.0436E+01
  6.7414E+03  0.0000E+00  4.4560E+01  4.0550E+01
  6.7277E+03  0.0000E+00  1.7205E+01  4.1016E+01
  6.7141E+03  0.0000E+00  3.2544E+01  4.0689E+01
  6.7005E+03  0.0000E+00  1.8201E+01  4.2075E+01
  6.6869E+03  0.0000E+00  5.5100E+01  3.9988E+01
  6.6802E+03  0.0000E+00  6.6201E+00  4.1551E+01
  6.6734E+03  0.0000E+00  3.7327E+00  4.0705E+01
  6.6667E+03  0.0000E+00  9.4184E+00  4.1103E+01
  6.6599E+03  0.0000E+00  2.8743E+01  4.1080E+01
  6.6532E+03  0.0000E+00  6.4540E+01  4.1245E+01
  6.6465E+03  0.0000E+00  4.1678E+01  4.0773E+01
  6.6398E+03  0.0000E+00  7.1141E+01  4.1051E+01
  6.6331E+03  0.0000E+00  5.5788E+01  4.0517E+01
  6.6265E+03  0.0000E+00  1.5789E+02  4.1281E+01
  6.6198E+03  0.0000E+00  2.1778E+01  4.1130E+01
  6.6131E+03  0.0000E+00  4.1585E+01  4.0619E+01
  6.5998E+03  0.0000E+00  2.0826E+01  4.1579E+01
  6.5932E+03  0.0000E+00  7.6527E+01  4.1046E+01
  6.5866E+03  0.0000E+00  9.2648E+01  4.2060E+01
  6.5800E+03  0.0000E+00  6.1493E+00  4.1991E+01
  6.5734E+03  0.0000E+00  5.2868E+00  4.1344E+01
  6.5668E+03  0.0000E+00  2.0881E+01  4.1460E+01
  6.5602E+03  0.0000E+00  3.7240E+01  4.1072E+01
  6.5537E+03  0.0000E+00  8.1227E+01  4.1076E+01
  6.5471E+03  0.0000E+00  1.4294E+02  4.1382E+01
  6.5406E+03  0.0000E+00  1.0412E+02  4.1655E+01
  6.5340E+03  0.0000E+00  2.7953E+01  4.1782E+01
  6.5275E+03  0.0000E+00  6.2903E+01  4.0721E+01
  6.5210E+03  0.0000E+00  3.7320E+01  4.1246E+01
  6.5145E+03  0.0000E+00  7.6482E+01  4.1358E+01
  6.5080E+03  0.0000E+00  6.9645E+01  4.1064E+01
  6.5015E+03  0.0000E+00  9.0973E+01  4.1498E+01
  6.4950E+03  0.0000E+00  8.2488E+01  4.0962E+01
  6.4885E+03  0.0000E+00  1.1542E+02  4.1898E+01
  6.4821E+03  0.0000E+00  1.3623E+02  4.1900E+01
  6.4756E+03  0.0000E+00  1.5364E+02  4.1872E+01
  6.4692E+03  0.0000E+00  7.4078E+01  4.1685E+01
  6.4627E+03  0.0000E+00  6.5169E+01  4.2528E+01
  6.4563E+03  0.0000E+00  1.1799E+02  4.1560E+01
  6.4499E+03  0.0000E+00  6.7193E+01  4.1826E+01
  6.4435E+03  0.0000E+00  9.4937E+01  4.2264E+01
  6.4371E+03  0.0000E+00  1.6027E+02  4.1909E+01
  6.4307E+03  0.0000E+00  9.0425E+01  4.2113E+01
  6.4243E+03  0.0000E+00  1.4306E+02  4.1537E+01
  6.4180E+03  0.0000E+00  1.0339E+02  4.3311E+01
  6.4116E+03  0.0000E+00  1.4738E+02  4.2173E+01
  6.4053E+03  0.0000E+00  1.5927E+02  4.2398E+01
  6.3989E+03  0.0000E+00  1.5724E+02  4.2332E+01
  6.3926E+03  0.0000E+00  2.6327E+02  4.2564E+01
  6.3863E+03  0.0000E+00  1.3846E+02  4.2009E+01
  6.3800E+03  0.0000E+00  8.9150E+01  4.2221E+01
  6.3737E+03  0.0000E+00  1.5392E+02  4.2180E+01
  6.3674E+03  0.0000E+00  1.5891E+02  4.2879E+01
  6.3611E+03  0.0000E+00  1.7353E+02  4.2574E+01
  6.3548E+03  0.0000E+00  1.6597E+02  4.2677E+01
  6.3486E+03  0.0000E+00  2.0062E+02  4.2676E+01
  6.3423E+03  0.0000E+00  1.9956E+02  4.1938E+01
  6.3361E+03  0.0000E+00  2.2622E+02  4.2961E+01
  6.3298E+03  0.0000E+00  1.5443E+02  4.2679E+01
  6.3236E+03  0.0000E+00  1.9171E+02  4.3362E+01
  6.3174E+03  0.0000E+00  1.8364E+02  4.2603E+01
  6.3112E+03  0.0000E+00  2.3204E+02  4.2695E+01
  6.3050E+03  0.0000E+00  2.8818E+02  4.2546E+01
  6.2988E+03  0.0000E+00  1.8990E+02  4.2668E+01
  6.2926E+03  0.0000E+00  1.9280E+02  4.2401E+01
  6.2865E+03  0.0000E+00  1.5406E+02  4.2752E+01
  6.2803E+03  0.0000E+00  2.1270E+02  4.3028E+01
  6.2741E+03  0.0000E+00  2.1861E+02  4.2939E+01
  6.2680E+03  0.0000E+00  1.6593E+02  4.3185E+01
  6.2619E+03  0.0000E+00  2.2702E+02  4.3226E+01
  6.2557E+03  0.0000E+00  2.1611E+02  4.3034E+01
  6.2496E+03  0.0000E+00  2.0048E+02  4.2959E+01
  6.2435E+03  0.0000E+00  2.0878E+02  4.2656E+01
  6.2374E+03  0.0000E+00  2.0549E+02  4.2755E+01
  6.2313E+03  0.0000E+00  1.7253E+02  4.2652E+01
  6.2253E+03  0.0000E+00  1.5710E+02  4.2285E+01
  6.2192E+03  0.0000E+00  1.1123E+02  4.2002E+01
  6.2131E+03  0.0000E+00  7.2419E+01  4.2740E+01
  6.2071E+03  0.0000E+00  1.1665E+02  4.1952E+01
  6.2010E+03  0.0000E+00  1.3921E+02  4.2599E+01
  6.1950E+03  0.0000E+00  9.4032E+01  4.2437E+01
  6.1890E+03  0.0000E+00  1.4936E+02  4.1783E+01
  6.1829E+03  0.0000E+00  5.3042E+01  4.2580E+01
  6.1769E+03  0.0000E+00  1.6225E+02  4.1321E+01
  6.1709E+03  0.0000E+00  2.0994E+02  4.2593E+01
  6.1649E+03  0.0000E+00  2.1002E+02  4.1569E+01
  6.1590E+03  0.0000E+00  1.9160E+02  4.1409E+01
  6.1530E+03  0.0000E+00  8.4308E+01  4.1258E+01
  6.1470E+03  0.0000E+00  1.0548E+02  4.1521E+01
  6.1411E+03  0.0000E+00  9.2595E+01  4.1424E+01
  6.1351E+03  0.0000E+00  1.4195E+02  4.1580E+01
  6.1292E+03  0.0000E+00  1.3057E+02  4.1187E+01
  6.1232E+03  0.0000E+00  6.1740E+01  4.2272E+01
  6.1173E+03  0.0000E+00  1.7144E+02  4.1876E+01
  6.1114E+03  0.0000E+00  9.0083E+01  4.1101E+01
  6.1055E+03  0.0000E+00  1.0918E+02  4.1456E+01
  6.0996E+03  0.0000E+00  1.0041E+02  4.1644E+01
  6.0937E+03  0.0000E+00  9.1677E+01  4.3027E+01
  6.0878E+03  0.0000E+00  9.6184E+00  4.2081E+01
  6.0820E+03  0.0000E+00  7.6009E+01  4.2074E+01
  6.0702E+03  0.0000E+00  4.6080E+01  4.1108E+01
  6.0644E+03  0.0000E+00  4.7719E+01  4.1209E+01
  6.0585E+03  0.0000E+00  9.4002E+01  4.1875E+01
  6.0527E+03  0.0000E+00  1.0142E+02  4.1252E+01
  6.0469E+03  0.0000E+00  1.2220E+02  4.1384E+01
  6.0411E+03  0.0000E+00  1.0867E+02  4.1522E+01
  6.0353E+03  0.0000E+00  8.0042E+00  4.2097E+01
  6.0295E+03  0.0000E+00  6.9780E+01  4.1772E+01
  6.0237E+03  0.0000E+00  3.8444E+01  4.1281E+01
  6.0179E+03  0.0000E+00  4.5339E+01  4.1129E+01
  6.0121E+03  0.0000E+00  7.1811E+00  4.1356E+01
  6.0064E+03  0.0000E+00  6.0332E+01  4.2413E+01
  6.0006E+03  0.0000E+00  5.5128E+01  4.1542E+01
  5.9891E+03  0.0000E+00  6.4946E+00  4.1988E+01
  5.9777E+03  0.0000E+00  5.4186E+01  4.2089E+01
  5.9720E+03  0.0000E+00  5.0020E+01  4.1972E+01
  5.9663E+03  0.0000E+00  6.0345E+00  4.1676E+01
  5.9606E+03  0.0000E+00  3.5399E+01  4.1576E+01
  5.9549E+03  0.0000E+00  2.5866E+01  4.1833E+01
  5.9492E+03  0.0000E+00  5.0370E+01  4.2331E+01
  5.9435E+03  0.0000E+00  2.0759E+00  4.3611E+01
  5.9379E+03  0.0000E+00  2.8181E+01  4.3436E+01
  5.9322E+03  0.0000E+00  2.3315E+01  4.5551E+01
  5.9266E+03  0.0000E+00  4.2626E+01  4.6133E+01
  5.9209E+03  0.0000E+00  4.2889E+01  4.8405E+01
  5.9153E+03  0.0000E+00  9.6014E+00  5.2998E+01
  5.9097E+03  0.0000E+00  7.1635E+01  5.5872E+01
  5.9041E+03  0.0000E+00  1.0789E+01  5.7256E+01
  5.8985E+03  0.0000E+00  3.0298E+01  5.7870E+01
  5.8929E+03  0.0000E+00  7.1171E+01  5.3783E+01
  5.8873E+03  0.0000E+00  7.3268E+01  5.1214E+01
  5.8817E+03  0.0000E+00  2.6804E+01  4.8395E+01
  5.8761E+03  0.0000E+00  6.0948E+01  4.6744E+01
  5.8650E+03  0.0000E+00  5.9144E+01  4.4688E+01
  5.8594E+03  0.0000E+00  6.8143E+00  4.3229E+01
  5.8483E+03  0.0000E+00  2.9882E+01  4.3018E+01
  5.8373E+03  0.0000E+00  9.0575E+00  4.2668E+01
  5.8208E+03  0.0000E+00  2.4930E+01  4.2386E+01
  5.8153E+03  0.0000E+00  2.0165E+01  4.2011E+01
  5.7989E+03  0.0000E+00  1.4598E+01  4.1881E+01
  5.7934E+03  0.0000E+00  7.8485E+01  4.1769E+01
  5.7879E+03  0.0000E+00  3.6720E+01  4.0964E+01
  5.7825E+03  0.0000E+00  9.8439E+01  4.2024E+01
  5.7771E+03  0.0000E+00  1.7556E+02  4.1678E+01
  5.7716E+03  0.0000E+00  6.9470E+01  4.1637E+01
  5.7662E+03  0.0000E+00  5.3704E+01  4.1708E+01
  5.7554E+03  0.0000E+00  1.1198E+02  4.1187E+01
  5.7446E+03  0.0000E+00  3.5470E+01  4.1926E+01
  5.7392E+03  0.0000E+00  2.0765E+01  4.0603E+01
  5.7339E+03  0.0000E+00  1.5696E+01  4.1436E+01
  5.7231E+03  0.0000E+00  3.8395E+01  4.1296E+01
  5.7178E+03  0.0000E+00  1.6973E+01  4.1918E+01
  5.7124E+03  0.0000E+00  7.9342E+01  4.0222E+01
  5.7071E+03  0.0000E+00  4.9513E+01  4.1504E+01
  5.7018E+03  0.0000E+00  3.1419E+01  4.1750E+01
  5.6964E+03  0.0000E+00  3.7912E+01  4.2040E+01
  5.6911E+03  0.0000E+00  9.9888E+01  4.1741E+01
  5.6858E+03  0.0000E+00  2.3362E+01  4.2040E+01
  5.6805E+03  0.0000E+00  9.3686E+00  4.1466E+01
  5.6699E+03  0.0000E+00  7.4549E+01  4.1803E+01
  5.6124E+03  0.0000E+00  2.5791E+01  1.0695E+01
  5.5351E+03  0.0000E+00  3.4831E+00  1.0798E+01
  5.3128E+03  0.0000E+00  7.3386E+00  1.0857E+01
  5.2417E+03  0.0000E+00  2.1648E+01  1.0813E+01
  5.1720E+03  0.0000E+00  3.2775E+01  1.0802E+01
  5.1036E+03  0.0000E+00  1.2314E+01  1.0866E+01
  5.0367E+03  0.0000E+00  2.6276E+01  1.0914E+01
  4.9710E+03  0.0000E+00  2.2619E+01  1.0836E+01
  4.9066E+03  0.0000E+00  2.5055E+01  1.1015E+01
  4.8434E+03  0.0000E+00  2.7134E+01  1.0971E+01
  4.7815E+03  0.0000E+00  7.1909E+00  1.0984E+01
  4.7207E+03  0.0000E+00  2.5422E+01  1.1016E+01
  4.6670E+03  0.0000E+00  9.5811E+00  2.1291E+01
  4.6356E+03  0.0000E+00  2.6741E+01  2.1321E+01
  4.6200E+03  0.0000E+00  3.7898E+01  2.1483E+01
  4.6045E+03  0.0000E+00  1.8127E+01  2.1434E+01
  4.5891E+03  0.0000E+00  5.5669E+01  2.1509E+01
  4.5737E+03  0.0000E+00  3.0571E+01  2.1904E+01
  4.5585E+03  0.0000E+00  2.8819E+01  2.1909E+01
  4.5433E+03  0.0000E+00  4.1137E+01  2.1638E+01
  4.5282E+03  0.0000E+00  1.4139E+01  2.1453E+01
  4.5131E+03  0.0000E+00  2.8831E+01  2.1300E+01
  4.4981E+03  0.0000E+00  3.6074E+01  2.1674E+01
  4.4833E+03  0.0000E+00  2.6878E+01  2.1789E+01
  4.4684E+03  0.0000E+00  5.5176E+01  2.1468E+01
  4.4537E+03  0.0000E+00  4.4757E+01  2.1699E+01
  4.4244E+03  0.0000E+00  4.1485E+01  2.1772E+01
  4.3954E+03  0.0000E+00  5.3906E+01  2.1580E+01
  4.3811E+03  0.0000E+00  8.6704E+01  2.1855E+01
  4.3667E+03  0.0000E+00  8.2748E+01  2.1650E+01
  4.3525E+03  0.0000E+00  7.0066E+01  2.1701E+01
  4.3383E+03  0.0000E+00  9.0093E+01  2.1705E+01
  4.3242E+03  0.0000E+00  7.2725E+01  2.2107E+01
  4.3102E+03  0.0000E+00  9.8539E+01  2.2262E+01
  4.2962E+03  0.0000E+00  1.6412E+02  2.2326E+01
  4.2823E+03  0.0000E+00  1.4222E+02  2.2252E+01
  4.2685E+03  0.0000E+00  1.4291E+02  2.3021E+01
  4.2547E+03  0.0000E+00  1.3461E+02  2.3053E+01
  4.2410E+03  0.0000E+00  2.0513E+02  2.2659E+01
  4.2274E+03  0.0000E+00  1.9512E+02  2.2351E+01
  4.2138E+03  0.0000E+00  1.9189E+02  2.2631E+01
  4.2003E+03  0.0000E+00  1.5643E+02  2.2308E+01
  4.1869E+03  0.0000E+00  1.8598E+02  2.2433E+01
  4.1735E+03  0.0000E+00  1.4771E+02  2.2188E+01
  4.1602E+03  0.0000E+00  1.0750E+02  2.2239E+01
  4.1470E+03  0.0000E+00  9.8803E+01  2.2223E+01
  4.1338E+03  0.0000E+00  9.7867E+01  2.1725E+01
  4.1207E+03  0.0000E+00  1.1039E+02  2.2054E+01
  4.1076E+03  0.0000E+00  8.1653E+01  2.1813E+01
  4.0946E+03  0.0000E+00  1.0800E+02  2.1727E+01
  4.0817E+03  0.0000E+00  6.1914E+01  2.1673E+01
  4.0688E+03  0.0000E+00  6.0928E+01  2.1791E+01
  4.0560E+03  0.0000E+00  6.2332E+01  2.1867E+01
  4.0432E+03  0.0000E+00  6.3350E+01  2.1764E+01
  4.0305E+03  0.0000E+00  6.6097E+01  2.1955E+01
  4.0179E+03  0.0000E+00  1.1032E+01  2.1741E+01
  4.0053E+03  0.0000E+00  4.0527E+00  2.1770E+01
  3.9975E+03  0.0000E+00  7.6023E+00  4.3200E+01
  3.9944E+03  0.0000E+00  4.4915E+00  4.3687E+01
  3.9913E+03  0.0000E+00  1.0500E+01  4.3799E+01
  3.9881E+03  0.0000E+00  4.3056E+01  4.2624E+01
  3.9819E+03  0.0000E+00  1.9600E+01  4.3065E+01
  3.9757E+03  0.0000E+00  8.0098E+01  4.3201E+01
  3.9695E+03  0.0000E+00  9.4849E+01  4.3008E+01
  3.9664E+03  0.0000E+00  2.0138E+01  4.3823E+01
  3.9633E+03  0.0000E+00  4.1087E+01  4.3597E+01
  3.9602E+03  0.0000E+00  1.1518E+02  4.4130E+01
  3.9572E+03  0.0000E+00  8.5428E+01  4.4308E+01
  3.9541E+03  0.0000E+00  1.1117E+02  4.4243E+01
  3.9510E+03  0.0000E+00  1.2327E+00  4.3514E+01
  3.9479E+03  0.0000E+00  7.5346E+01  4.3367E+01
  3.9449E+03  0.0000E+00  1.1324E+01  4.3876E+01
  3.9418E+03  0.0000E+00  3.2442E+01  4.3857E+01
  3.9388E+03  0.0000E+00  3.6586E+01  4.3113E+01
  3.9326E+03  0.0000E+00  5.5385E+01  4.3930E+01
  3.9296E+03  0.0000E+00  1.8786E+00  4.3008E+01
  3.9265E+03  0.0000E+00  2.0591E+00  4.3539E+01
  3.9205E+03  0.0000E+00  1.0863E+02  4.3555E+01
  3.9174E+03  0.0000E+00  3.4200E+01  4.3927E+01
  3.8903E+03  0.0000E+00  1.2164E+01  1.1187E+01
  3.8457E+03  0.0000E+00  1.2520E+01  1.1288E+01
  3.8018E+03  0.0000E+00  1.8380E+00  1.1290E+01
  3.7587E+03  0.0000E+00  1.9774E+01  1.1224E+01
  3.6746E+03  0.0000E+00  1.3559E+01  1.1306E+01
  3.6336E+03  0.0000E+00  2.6925E+01  1.1227E+01
  3.5537E+03  0.0000E+00  1.0721E+01  1.1320E+01
  3.4386E+03  0.0000E+00  1.6961E+01  1.1368E+01
  3.4015E+03  0.0000E+00  1.1749E+01  1.1314E+01
  3.3650E+03  0.0000E+00  1.0179E+01  1.1679E+01
  3.3290E+03  0.0000E+00  5.9977E+00  1.1516E+01
  3.2937E+03  0.0000E+00  1.5830E+01  1.1426E+01
  3.2727E+03  0.0000E+00  3.0258E+01  4.4369E+01
  3.2704E+03  0.0000E+00  9.2197E+01  4.4644E+01
  3.2681E+03  0.0000E+00  6.0907E+01  4.3795E+01
  3.2658E+03  0.0000E+00  6.0807E+01  4.4337E+01
  3.2543E+03  0.0000E+00  8.5461E+01  4.3804E+01
  3.2520E+03  0.0000E+00  5.9522E+01  4.4058E+01
  3.2497E+03  0.0000E+00  9.1576E+01  4.4423E+01
  3.2405E+03  0.0000E+00  3.2057E+01  4.4332E+01
  3.2383E+03  0.0000E+00  2.1492E+01  4.3711E+01
  3.2360E+03  0.0000E+00  7.2576E+01  4.3929E+01
  3.2337E+03  0.0000E+00  1.3062E+01  4.4524E+01
  3.2314E+03  0.0000E+00  7.2134E+01  4.5093E+01
  3.2269E+03  0.0000E+00  4.5339E+01  4.4054E+01
  3.2246E+03  0.0000E+00  1.1323E+02  4.5416E+01
  3.2224E+03  0.0000E+00  1.0867E+02  4.5726E+01
  3.2201E+03  0.0000E+00  8.0230E+01  4.5385E+01
  3.2178E+03  0.0000E+00  1.3998E+02  4.5314E+01
  3.2156E+03  0.0000E+00  2.0948E+02  4.6753E+01
  3.2133E+03  0.0000E+00  8.4568E+01  4.6012E+01
  3.2111E+03  0.0000E+00  2.2291E+02  4.6237E+01
  3.2088E+03  0.0000E+00  2.7496E+02  4.6919E+01
  3.2066E+03  0.0000E+00  2.8699E+02  4.7687E+01
  3.2043E+03  0.0000E+00  1.5321E+02  4.6586E+01
  3.2021E+03  0.0000E+00  2.3409E+02  4.6979E+01
  3.1998E+03  0.0000E+00  1.7181E+02  4.6247E+01
  3.1976E+03  0.0000E+00  1.7006E+02  4.5960E+01
  3.1954E+03  0.0000E+00  1.0357E+02  4.5902E+01
  3.1931E+03  0.0000E+00  1.7340E+02  4.6035E+01
  3.1909E+03  0.0000E+00  1.2290E+02  4.6408E+01
  3.1887E+03  0.0000E+00  3.8846E+01  4.7617E+01
  3.1865E+03  0.0000E+00  1.0470E+02  4.9551E+01
  3.1820E+03  0.0000E+00  2.8436E+01  4.9802E+01
  3.1798E+03  0.0000E+00  1.0637E+02  4.9018E+01
  3.1776E+03  0.0000E+00  5.7096E+01  4.8157E+01
  3.1731E+03  0.0000E+00  7.8518E+01  4.5868E+01
  3.1687E+03  0.0000E+00  3.8015E+01  4.5539E+01
  3.1665E+03  0.0000E+00  1.1506E+01  4.5501E+01
  3.1621E+03  0.0000E+00  1.3651E+01  4.5133E+01
  3.1599E+03  0.0000E+00  5.3803E+01  4.5240E+01
  3.1577E+03  0.0000E+00  2.3072E+01  4.4735E+01
  3.1512E+03  0.0000E+00  3.5794E+01  4.4477E+01
  3.1490E+03  0.0000E+00  2.9460E+01  4.4178E+01
  3.1468E+03  0.0000E+00  1.5320E+01  4.3965E+01
  3.1446E+03  0.0000E+00  3.6517E+01  4.3946E+01
  3.1424E+03  0.0000E+00  4.2404E+01  4.3469E+01
  3.1381E+03  0.0000E+00  5.8415E+01  4.3818E+01
  3.1359E+03  0.0000E+00  9.6132E+01  4.3540E+01
  3.1337E+03  0.0000E+00  5.2521E+01  4.4905E+01
  3.1315E+03  0.0000E+00  1.0885E+02  4.4441E+01
  3.1294E+03  0.0000E+00  1.7790E+00  4.4953E+01
  3.1272E+03  0.0000E+00  3.1291E+01  4.4540E+01
  3.1251E+03  0.0000E+00  3.3023E+01  4.4087E+01
  3.1207E+03  0.0000E+00  9.2365E-01  4.4180E+01
  3.1186E+03  0.0000E+00  6.9545E+01  4.4639E+01
  3.0833E+03  0.0000E+00  3.6370E+00  1.3956E+01
  3.0623E+03  0.0000E+00  9.3645E+00  1.4228E+01
  3.0414E+03  0.0000E+00  2.1340E+01  1.4227E+01
  2.9801E+03  0.0000E+00  7.5922E+00  1.4073E+01
  2.9403E+03  0.0000E+00  1.6121E+01  1.4016E+01
  2.9206E+03  0.0000E+00  1.1483E+01  1.4004E+01
  2.8820E+03  0.0000E+00  4.9934E-01  1.3996E+01
  2.8441E+03  0.0000E+00  1.7706E+01  1.3991E+01
  2.7886E+03  0.0000E+00  1.2867E+01  1.3931E+01
  2.7705E+03  0.0000E+00  2.8585E+01  1.4121E+01
  2.7525E+03  0.0000E+00  1.1233E+01  1.4098E+01
  2.7348E+03  0.0000E+00  1.4995E+01  1.4192E+01
  2.7172E+03  0.0000E+00  3.7048E+01  1.4104E+01
  2.6997E+03  0.0000E+00  5.7069E+00  1.4411E+01
  2.6824E+03  0.0000E+00  1.9787E+01  1.5338E+01
  2.6653E+03  0.0000E+00  2.6731E+01  1.4300E+01
  2.6150E+03  0.0000E+00  3.4038E+00  1.4270E+01
  2.5822E+03  0.0000E+00  5.3721E+00  1.5026E+01
  2.5661E+03  0.0000E+00  1.1723E+01  1.4676E+01
  2.4571E+03  0.0000E+00  2.4042E+00  1.4456E+01
  2.4125E+03  0.0000E+00  7.1982E+00  1.4523E+01
  2.3979E+03  0.0000E+00  5.1749E+00  1.4521E+01
  2.3691E+03  0.0000E+00  2.4678E+01  1.4802E+01
  2.3409E+03  0.0000E+00  3.9229E-01  1.4864E+01
  2.3131E+03  0.0000E+00  1.4889E-01  1.4495E+01
  2.2458E+03  0.0000E+00  1.4599E+01  1.4667E+01
  2.2197E+03  0.0000E+00  2.2323E+00  1.4518E+01
  2.2068E+03  0.0000E+00  3.1923E+00  1.4589E+01
  2.1940E+03  0.0000E+00  2.1052E+01  1.4571E+01
  2.1688E+03  0.0000E+00  2.0721E+01  1.4599E+01
  2.1441E+03  0.0000E+00  5.5030E+00  1.4827E+01
  2.1227E+03  0.0000E+00  6.0945E+00  2.0932E+01
  2.1047E+03  0.0000E+00  8.8144E+00  2.0472E+01
  2.0869E+03  0.0000E+00  5.6155E+00  2.0871E+01
  2.0810E+03  0.0000E+00  5.0336E+00  2.1171E+01
  2.0067E+03  0.0000E+00  4.5353E+01  4.7017E+01
  2.0045E+03  0.0000E+00  1.5649E+01  4.5992E+01
  2.0034E+03  0.0000E+00  1.7338E+01  4.6485E+01
  2.0023E+03  0.0000E+00  2.4048E+01  4.7487E+01
  2.0012E+03  0.0000E+00  8.9629E+01  4.6968E+01
  2.0001E+03  0.0000E+00  5.4011E+01  4.6623E+01
  1.9990E+03  0.0000E+00  2.5669E+00  4.6456E+01
  1.9956E+03  0.0000E+00  1.4527E+02  4.6844E+01
  1.9945E+03  0.0000E+00  9.0032E+01  4.6356E+01
  1.9934E+03  0.0000E+00  4.5307E+01  4.6930E+01
  1.9912E+03  0.0000E+00  1.7467E+01  4.6256E+01
  1.9858E+03  0.0000E+00  1.6842E+01  4.7497E+01
  1.9443E+03  0.0000E+00  1.3105E+01  1.4802E+01
  1.9337E+03  0.0000E+00  1.5580E+01  1.4865E+01
  1.9129E+03  0.0000E+00  4.4441E+00  1.4824E+01
  1.9025E+03  0.0000E+00  1.3406E+01  1.4832E+01
  1.8923E+03  0.0000E+00  3.7354E+00  1.4718E+01
  1.8822E+03  0.0000E+00  3.6051E+00  1.4867E+01
  1.8721E+03  0.0000E+00  4.0102E+01  1.4776E+01
  1.8621E+03  0.0000E+00  1.9111E+01  1.4892E+01
  1.8522E+03  0.0000E+00  2.0225E+01  1.4774E+01
  1.8424E+03  0.0000E+00  7.9315E+00  1.4832E+01
  1.8327E+03  0.0000E+00  2.3776E+01  1.5005E+01
  1.8230E+03  0.0000E+00  1.8141E+01  1.5005E+01
  1.8134E+03  0.0000E+00  2.4935E+01  1.4961E+01
  1.7945E+03  0.0000E+00  2.5553E+01  1.4937E+01
  1.7851E+03  0.0000E+00  2.3866E+01  1.4869E+01
  1.7758E+03  0.0000E+00  8.6752E-01  1.4904E+01
  1.7666E+03  0.0000E+00  7.4816E+00  1.4927E+01
  1.7574E+03  0.0000E+00  7.9875E+00  1.4971E+01
  1.7483E+03  0.0000E+00  1.2798E+01  1.5018E+01
  1.7393E+03  0.0000E+00  2.3571E+01  1.5044E+01
  1.7304E+03  0.0000E+00  3.0624E+01  1.4865E+01
  1.7215E+03  0.0000E+00  1.6034E+01  1.5065E+01
  1.7120E+03  0.0000E+00  8.4714E+00  1.3804E+01
  1.6962E+03  0.0000E+00  8.3425E+00  1.1001E+01
  1.6790E+03  0.0000E+00  1.5170E+01  1.0812E+01
  1.6622E+03  0.0000E+00  2.6513E+01  1.0668E+01
  1.6455E+03  0.0000E+00  3.1583E+01  1.0624E+01
  1.6291E+03  0.0000E+00  1.7983E+00  1.0708E+01
  1.6130E+03  0.0000E+00  1.9171E+01  1.0640E+01
  1.5814E+03  0.0000E+00  6.6126E-01  1.0729E+01
  1.5659E+03  0.0000E+00  6.1104E+00  1.0706E+01
  1.5507E+03  0.0000E+00  2.3024E+01  1.0689E+01
  1.5357E+03  0.0000E+00  1.8001E+01  1.0678E+01
  1.5209E+03  0.0000E+00  2.5557E+01  1.0743E+01
  1.4920E+03  0.0000E+00  4.0770E+00  1.0743E+01
  1.4779E+03  0.0000E+00  2.1955E+01  1.0821E+01
  1.4639E+03  0.0000E+00  9.4531E+00  1.0816E+01
  1.4366E+03  0.0000E+00  7.7058E+00  1.1512E+01
  1.4100E+03  0.0000E+00  3.0315E+00  1.0839E+01
  1.3970E+03  0.0000E+00  7.0850E+00  1.0794E+01
  1.3842E+03  0.0000E+00  2.8453E+01  1.0807E+01
  1.3715E+03  0.0000E+00  3.7464E+01  1.0845E+01
  1.3590E+03  0.0000E+00  8.5249E+00  1.0832E+01
  1.3467E+03  0.0000E+00  1.3926E+01  1.1264E+01
  1.3346E+03  0.0000E+00  2.8805E+00  1.0829E+01
  1.3226E+03  0.0000E+00  6.8453E+00  1.0822E+01
  1.3108E+03  0.0000E+00  2.6884E+01  1.0795E+01
  1.2991E+03  0.0000E+00  5.6819E+00  1.0688E+01
  1.2762E+03  0.0000E+00  2.0841E+01  1.0691E+01
  1.2650E+03  0.0000E+00  3.1041E+01  1.0773E+01
  1.2540E+03  0.0000E+00  8.8857E-01  1.0882E+01
  1.2431E+03  0.0000E+00  1.4883E+01  1.0796E+01
  1.2323E+03  0.0000E+00  2.7470E-01  1.0872E+01
  1.2217E+03  0.0000E+00  1.5108E+01  1.0939E+01
  1.2112E+03  0.0000E+00  4.5272E+00  1.0972E+01
  1.2008E+03  0.0000E+00  2.2394E+01  1.0980E+01
  1.1906E+03  0.0000E+00  2.5255E+01  1.1029E+01
  1.1805E+03  0.0000E+00  1.2974E+01  1.1022E+01
  1.1607E+03  0.0000E+00  9.4620E+00  1.1041E+01
  1.1509E+03  0.0000E+00  1.5780E+01  1.1117E+01
  1.1413E+03  0.0000E+00  2.1299E+01  1.1047E+01
  1.1323E+03  0.0000E+00  1.1168E+00  2.0199E+01
  1.1295E+03  0.0000E+00  1.9260E+01  2.0309E+01
  1.1267E+03  0.0000E+00  1.4941E+01  2.0448E+01
  1.1239E+03  0.0000E+00  5.3133E+00  2.0737E+01
  1.1211E+03  0.0000E+00  3.6557E+01  2.1414E+01
  1.1128E+03  0.0000E+00  1.3604E-01  2.1094E+01
  1.1073E+03  0.0000E+00  7.8390E+00  2.0469E+01
  1.0884E+03  0.0000E+00  4.9446E+00  2.0626E+01
  1.0857E+03  0.0000E+00  3.7679E+01  2.0580E+01
  1.0831E+03  0.0000E+00  1.4158E+01  2.0538E+01
  1.0804E+03  0.0000E+00  2.2317E+00  2.0417E+01
  1.0700E+03  0.0000E+00  1.3809E+01  2.0381E+01
  1.0674E+03  0.0000E+00  2.5370E+01  2.0375E+01
  1.0618E+03  0.0000E+00  1.2041E+01  1.1168E+01
  1.0533E+03  0.0000E+00  1.3881E+01  1.1498E+01
  1.0449E+03  0.0000E+00  2.9178E+01  1.1280E+01
  1.0366E+03  0.0000E+00  2.5232E+01  1.1170E+01
  1.0284E+03  0.0000E+00  1.9631E+01  1.1195E+01
  1.0203E+03  0.0000E+00  8.8175E-01  1.1250E+01
  1.0122E+03  0.0000E+00  3.3248E-01  1.1254E+01
  1.0043E+03  0.0000E+00  5.2369E+00  1.1227E+01
  9.9650E+02  0.0000E+00  1.5218E+01  1.1256E+01
  9.8876E+02  0.0000E+00  1.0675E+01  1.1276E+01
  9.8111E+02  0.0000E+00  2.0354E+01  1.1275E+01
  9.7355E+02  0.0000E+00  2.2708E+01  1.1289E+01
  9.6608E+02  0.0000E+00  7.4199E+00  1.1396E+01
  9.5870E+02  0.0000E+00  8.4950E-02  1.1327E+01
  9.5139E+02  0.0000E+00  8.4661E+00  1.1329E+01
  9.4417E+02  0.0000E+00  6.1792E+00  1.1296E+01
  9.3704E+02  0.0000E+00  1.4137E+01  1.1368E+01
  9.2998E+02  0.0000E+00  1.7953E+01  1.1307E+01
  9.2300E+02  0.0000E+00  1.5482E+01  1.1468E+01
  9.0928E+02  0.0000E+00  4.3097E+00  1.2130E+01
  9.0254E+02  0.0000E+00  6.1056E+00  1.1501E+01
  8.9587E+02  0.0000E+00  4.0113E+01  1.1466E+01
  8.8927E+02  0.0000E+00  4.6849E-01  1.1513E+01
  8.8274E+02  0.0000E+00  9.1713E+00  1.1537E+01
  8.7629E+02  0.0000E+00  3.0924E+01  1.1460E+01
  8.6991E+02  0.0000E+00  1.4029E+01  1.1496E+01
  8.6359E+02  0.0000E+00  1.3154E+01  1.1513E+01
  8.5117E+02  0.0000E+00  1.8694E+01  1.1937E+01
  8.4506E+02  0.0000E+00  1.4401E+01  1.1598E+01
  8.3902E+02  0.0000E+00  2.7272E+01  1.1530E+01
  8.3304E+02  0.0000E+00  6.8439E+00  1.1441E+01
  8.2126E+02  0.0000E+00  1.0171E+01  1.1504E+01
  8.1547E+02  0.0000E+00  1.8135E+01  1.1581E+01
  8.0974E+02  0.0000E+00  1.8899E+01  1.1641E+01
  8.0407E+02  0.0000E+00  2.2391E+01  1.2128E+01
  7.9846E+02  0.0000E+00  1.1489E+01  1.2058E+01
  7.9291E+02  0.0000E+00  3.3901E+01  1.1657E+01
  7.8741E+02  0.0000E+00  1.8790E+01  1.1552E+01
  7.8197E+02  0.0000E+00  1.9926E+01  1.1632E+01
  7.7659E+02  0.0000E+00  6.0400E+00  1.1576E+01
  7.7126E+02  0.0000E+00  3.5119E+00  1.1648E+01
  7.6599E+02  0.0000E+00  2.2739E+01  1.1677E+01
  7.6077E+02  0.0000E+00  2.7890E+01  1.1719E+01
  7.5561E+02  0.0000E+00  1.5543E+01  1.3230E+01
  7.4543E+02  0.0000E+00  1.4048E+01  1.1720E+01
  7.4042E+02  0.0000E+00  1.2570E+01  1.2897E+01
  7.3547E+02  0.0000E+00  3.5629E+01  1.2140E+01
  7.3056E+02  0.0000E+00  1.6194E+01  1.1708E+01
  7.2569E+02  0.0000E+00  1.8968E+01  1.1708E+01
  7.2088E+02  0.0000E+00  1.5144E+01  1.1745E+01
  7.1140E+02  0.0000E+00  1.0618E+01  1.1771E+01
  7.0673E+02  0.0000E+00  2.3035E+01  1.1737E+01
  7.0210E+02  0.0000E+00  1.2232E+01  1.1776E+01
  6.9752E+02  0.0000E+00  2.3295E+01  1.1716E+01
  6.9299E+02  0.0000E+00  1.9661E+01  1.1798E+01
  6.8849E+02  0.0000E+00  4.7935E+00  1.1832E+01
  6.7964E+02  0.0000E+00  7.4514E-01  1.1912E+01
  6.7528E+02  0.0000E+00  1.7450E+01  1.2656E+01
  6.7096E+02  0.0000E+00  2.0061E+01  1.3877E+01
  6.6668E+02  0.0000E+00  8.9042E+00  1.1976E+01
  6.5824E+02  0.0000E+00  8.1374E+00  1.1801E+01
  6.4997E+02  0.0000E+00  7.2181E+00  1.1835E+01
  6.4588E+02  0.0000E+00  2.0464E+00  1.1896E+01
  6.4184E+02  0.0000E+00  1.1996E+01  1.1957E+01
  6.3784E+02  0.0000E+00  1.9088E+01  1.2006E+01
  6.2994E+02  0.0000E+00  2.7706E+01  1.1947E+01
  6.2605E+02  0.0000E+00  1.2627E+01  1.1991E+01
  6.2219E+02  0.0000E+00  1.8284E+01  1.2028E+01
  6.1837E+02  0.0000E+00  7.4700E+00  1.1919E+01
  6.1083E+02  0.0000E+00  1.9635E+01  1.1920E+01
  6.0711E+02  0.0000E+00  4.1071E-01  1.1962E+01
  5.9257E+02  0.0000E+00  1.6309E+01  1.1969E+01
  5.8567E+02  0.0000E+00  2.9756E+00  1.6988E+01
  5.8462E+02  0.0000E+00  9.4052E+01  3.8115E+01
  5.8427E+02  0.0000E+00  2.0054E+01  3.7636E+01
  5.8323E+02  0.0000E+00  1.3455E+01  3.8620E+01
  5.8288E+02  0.0000E+00  3.6597E+01  3.8607E+01
  5.8253E+02  0.0000E+00  1.7599E+01  3.8524E+01
  5.8184E+02  0.0000E+00  2.0729E+00  3.8485E+01
  5.8149E+02  0.0000E+00  2.9799E+01  3.8715E+01
  5.8114E+02  0.0000E+00  4.2961E+01  3.8941E+01
  5.7632E+02  0.0000E+00  2.9013E-01  3.9222E+01
  5.7598E+02  0.0000E+00  5.6769E+01  3.8479E+01
  5.7495E+02  0.0000E+00  1.0385E-02  3.8479E+01
  5.7461E+02  0.0000E+00  6.3147E+01  3.8269E+01
  5.7427E+02  0.0000E+00  9.9495E+00  3.8001E+01
  5.7325E+02  0.0000E+00  8.5751E+00  3.8047E+01
  5.7223E+02  0.0000E+00  6.7361E+01  3.8045E+01
  5.7190E+02  0.0000E+00  4.9434E+01  3.7956E+01
  5.7156E+02  0.0000E+00  5.2604E+01  3.7860E+01
  5.7122E+02  0.0000E+00  1.8955E+01  3.8429E+01
  5.6937E+02  0.0000E+00  6.1799E+00  1.2070E+01
  5.6602E+02  0.0000E+00  6.6399E+00  1.2060E+01
  5.6270E+02  0.0000E+00  1.3713E+01  1.2059E+01
  5.5942E+02  0.0000E+00  8.0779E+00  1.2046E+01
  5.5616E+02  0.0000E+00  5.9181E+00  1.2098E+01
  5.5293E+02  0.0000E+00  2.7869E+01  1.2428E+01
  5.4972E+02  0.0000E+00  2.3499E+01  1.2139E+01
  5.4655E+02  0.0000E+00  1.5432E+01  1.2116E+01
  5.4340E+02  0.0000E+00  1.0198E+01  1.2149E+01
  5.4028E+02  0.0000E+00  7.7198E+00  1.2178E+01
  5.3719E+02  0.0000E+00  2.5227E+00  1.2191E+01
  5.3412E+02  0.0000E+00  1.1096E+01  1.2113E+01
  5.3108E+02  0.0000E+00  2.2241E+01  1.2175E+01
  5.2806E+02  0.0000E+00  1.5651E+01  1.2174E+01
  5.2507E+02  0.0000E+00  3.1674E+01  1.2274E+01
  5.1917E+02  0.0000E+00  2.5210E+01  1.2177E+01
  5.1626E+02  0.0000E+00  1.0969E+01  1.2148E+01
  5.1337E+02  0.0000E+00  2.0195E+01  1.2197E+01
  5.0766E+02  0.0000E+00  9.3109E+00  1.2220E+01
  5.0484E+02  0.0000E+00  1.9134E+01  1.2248E+01
  4.9927E+02  0.0000E+00  8.3110E+00  1.2367E+01
  4.9653E+02  0.0000E+00  2.6866E+01  1.2214E+01
  4.9380E+02  0.0000E+00  1.1866E+01  1.2280E+01
  4.9110E+02  0.0000E+00  6.8170E+00  1.2295E+01
  4.8841E+02  0.0000E+00  2.6985E+00  1.2288E+01
  4.8575E+02  0.0000E+00  1.9158E+01  1.2243E+01
  4.8312E+02  0.0000E+00  6.8544E+00  1.2235E+01
  4.8050E+02  0.0000E+00  1.4628E+01  1.2375E+01
  4.7790E+02  0.0000E+00  3.6941E+00  1.2308E+01
  4.7533E+02  0.0000E+00  5.6152E+00  1.2343E+01
  4.7024E+02  0.0000E+00  8.6034E+00  1.2361E+01
  4.6773E+02  0.0000E+00  8.1719E+00  1.2388E+01
  4.6524E+02  0.0000E+00  1.7191E+01  1.2412E+01
  4.6277E+02  0.0000E+00  1.2388E+01  1.2333E+01
  4.6031E+02  0.0000E+00  2.4730E+01  1.2421E+01
  4.5788E+02  0.0000E+00  1.4862E+01  1.2472E+01
  4.5307E+02  0.0000E+00  2.6563E+01  1.2464E+01
  4.4833E+02  0.0000E+00  2.9467E+01  1.2543E+01
  4.4599E+02  0.0000E+00  1.3072E+01  1.2544E+01
  4.4367E+02  0.0000E+00  1.8491E+01  1.3482E+01
  4.4137E+02  0.0000E+00  3.1286E+01  1.2636E+01
  4.3908E+02  0.0000E+00  2.9821E+00  1.2510E+01
  4.3682E+02  0.0000E+00  2.1103E+01  1.2527E+01
  4.3457E+02  0.0000E+00  1.0639E+01  1.2545E+01
  4.3233E+02  0.0000E+00  1.7414E+01  1.2673E+01
  4.3012E+02  0.0000E+00  2.2928E+01  1.2565E+01
  4.2792E+02  0.0000E+00  5.3461E+00  1.2513E+01
  4.2574E+02  0.0000E+00  7.2610E+00  1.2557E+01
  4.2357E+02  0.0000E+00  1.0013E+01  1.2661E+01
  4.1929E+02  0.0000E+00  1.3958E+01  1.2579E+01
  4.1633E+02  0.0000E+00  8.2983E+00  9.6701E+00
  4.1216E+02  0.0000E+00  6.5454E+00  9.0422E+00
  4.0806E+02  0.0000E+00  1.7818E+01  9.0004E+00
  4.0401E+02  0.0000E+00  8.2615E+00  9.0401E+00
  4.0002E+02  0.0000E+00  2.7785E+01  9.2002E+00
  3.9222E+02  0.0000E+00  1.6614E+01  1.6585E+01
  3.8840E+02  0.0000E+00  1.4102E+01  9.4947E+00
  3.8094E+02  0.0000E+00  5.6913E+00  8.9479E+00
  3.7728E+02  0.0000E+00  1.4523E+01  8.9964E+00
  3.7368E+02  0.0000E+00  2.4587E+01  9.0181E+00
  3.6664E+02  0.0000E+00  6.9135E+00  9.0474E+00
  3.5894E+02  0.0000E+00  1.2960E+01  1.2875E+01
  3.5726E+02  0.0000E+00  1.2538E+00  1.3403E+01
  3.2173E+02  0.0000E+00  1.1605E+00  1.3153E+01
  3.1609E+02  0.0000E+00  3.2815E+00  1.3079E+01
  3.1471E+02  0.0000E+00  2.4659E+00  1.3147E+01
  3.1196E+02  0.0000E+00  6.3415E+00  1.3658E+01
  3.1060E+02  0.0000E+00  1.5255E+01  1.3250E+01
  3.0952E+02  0.0000E+00  2.9806E+01  2.9375E+01
  3.0925E+02  0.0000E+00  2.8243E+01  2.9223E+01
  3.0872E+02  0.0000E+00  4.6967E-01  2.9285E+01
  3.0845E+02  0.0000E+00  2.2137E+01  2.8963E+01
  3.0818E+02  0.0000E+00  1.6829E+01  2.9372E+01
  3.0791E+02  0.0000E+00  6.5385E+01  2.9276E+01
  3.0765E+02  0.0000E+00  3.6076E+01  2.9280E+01
  3.0738E+02  0.0000E+00  5.5417E+01  2.8952E+01
  3.0711E+02  0.0000E+00  4.9821E+01  2.9315E+01
  3.0685E+02  0.0000E+00  9.6115E+00  2.9193E+01
  3.0658E+02  0.0000E+00  7.3670E+01  2.9044E+01
  3.0632E+02  0.0000E+00  7.7274E+01  2.9321E+01
  3.0605E+02  0.0000E+00  4.2207E+00  2.9399E+01
  3.0579E+02  0.0000E+00  1.5996E+01  2.9461E+01
  3.0552E+02  0.0000E+00  3.4969E+01  2.9382E+01
  3.0526E+02  0.0000E+00  2.3206E+01  2.9261E+01
  3.0499E+02  0.0000E+00  1.5484E+01  2.9592E+01
  3.0473E+02  0.0000E+00  3.3027E+01  2.9469E+01
  3.0447E+02  0.0000E+00  2.7111E+00  2.9368E+01
  3.0394E+02  0.0000E+00  1.2945E+01  2.9013E+01
  3.0199E+02  0.0000E+00  1.3563E+01  9.2883E+00
  2.9941E+02  0.0000E+00  1.3897E+01  9.2526E+00
  2.9686E+02  0.0000E+00  1.8484E+01  9.3057E+00
  2.9434E+02  0.0000E+00  2.6644E+01  9.3325E+00
  2.9186E+02  0.0000E+00  3.3710E+01  9.3646E+00
  2.8941E+02  0.0000E+00  1.3224E+01  9.3865E+00
  2.8699E+02  0.0000E+00  4.8580E+01  9.3245E+00
  2.8460E+02  0.0000E+00  4.8860E+01  9.3554E+00
  2.8224E+02  0.0000E+00  3.9846E+01  9.3464E+00
  2.7991E+02  0.0000E+00  2.1713E+01  9.3986E+00
  2.7760E+02  0.0000E+00  3.0933E+01  9.4368E+00
  2.7533E+02  0.0000E+00  5.1708E+01  9.5497E+00
  2.7308E+02  0.0000E+00  5.3247E+01  9.4660E+00
  2.7086E+02  0.0000E+00  3.1472E+01  9.5966E+00
  2.6867E+02  0.0000E+00  5.7059E+01  9.5627E+00
  2.6650E+02  0.0000E+00  5.8687E+01  9.4857E+00
  2.6436E+02  0.0000E+00  6.0858E+01  9.4663E+00
  2.6225E+02  0.0000E+00  5.0014E+01  9.7862E+00
  2.6016E+02  0.0000E+00  5.2241E+01  9.5875E+00
  2.5810E+02  0.0000E+00  7.3788E+01  9.5436E+00
  2.5606E+02  0.0000E+00  7.8732E+01  9.5908E+00
  2.5404E+02  0.0000E+00  5.4974E+01  9.5591E+00
  2.5205E+02  0.0000E+00  6.6716E+01  9.5827E+00
  2.5008E+02  0.0000E+00  8.9669E+01  9.6346E+00
  2.4814E+02  0.0000E+00  9.7800E+01  9.6320E+00
  2.4621E+02  0.0000E+00  8.3049E+01  9.6960E+00
  2.4431E+02  0.0000E+00  9.6350E+01  9.7234E+00
  2.4243E+02  0.0000E+00  1.1122E+02  9.7163E+00
  2.4058E+02  0.0000E+00  1.3370E+02  9.7666E+00
  2.3874E+02  0.0000E+00  1.3793E+02  9.7857E+00
  2.3693E+02  0.0000E+00  1.5290E+02  9.8515E+00
  2.3513E+02  0.0000E+00  1.6722E+02  1.0324E+01
  2.3336E+02  0.0000E+00  1.9075E+02  1.0788E+01
  2.3160E+02  0.0000E+00  1.8529E+02  1.0224E+01
  2.2987E+02  0.0000E+00  2.1570E+02  1.0068E+01
  2.2815E+02  0.0000E+00  2.4861E+02  1.0447E+01
  2.2646E+02  0.0000E+00  2.7489E+02  1.1237E+01
  2.2478E+02  0.0000E+00  2.9585E+02  1.0676E+01
  2.2312E+02  0.0000E+00  3.5100E+02  1.0428E+01
  2.2148E+02  0.0000E+00  4.3133E+02  1.0604E+01
  2.1986E+02  0.0000E+00  4.9396E+02  1.0854E+01
  2.1826E+02  0.0000E+00  5.8815E+02  1.1137E+01
  2.1667E+02  0.0000E+00  6.8349E+02  1.1664E+01
  2.1510E+02  0.0000E+00  8.4725E+02  1.2493E+01
  2.1355E+02  0.0000E+00  9.9604E+02  1.2686E+01
  2.1201E+02  0.0000E+00  1.2282E+03  1.3723E+01
  2.1049E+02  0.0000E+00  1.5236E+03  1.5235E+01
  2.0899E+02  0.0000E+00  1.8581E+03  1.7353E+01
  2.0750E+02  0.0000E+00  2.2818E+03  2.0371E+01
  2.0603E+02  0.0000E+00  2.6362E+03  2.3662E+01
  2.0458E+02  0.0000E+00  2.8554E+03  2.5885E+01
  2.0314E+02  0.0000E+00  2.8170E+03  2.5608E+01
  2.0171E+02  0.0000E+00  2.6058E+03  2.3461E+01
  2.0030E+02  0.0000E+00  2.3220E+03  2.0713E+01
  1.9891E+02  0.0000E+00  1.9146E+03  1.7719E+01
  1.9752E+02  0.0000E+00  1.5558E+03  1.5625E+01
  1.9616E+02  0.0000E+00  1.2832E+03  1.4187E+01
  1.9481E+02  0.0000E+00  1.0570E+03  1.3221E+01
  1.9347E+02  0.0000E+00  8.9379E+02  1.3802E+01
  1.9214E+02  0.0000E+00  7.4022E+02  1.2240E+01
  1.9083E+02  0.0000E+00  6.1336E+02  1.1504E+01
  1.8953E+02  0.0000E+00  5.4379E+02  1.1277E+01
  1.8825E+02  0.0000E+00  4.6791E+02  1.1034E+01
  1.8698E+02  0.0000E+00  3.9375E+02  1.0821E+01
  1.8572E+02  0.0000E+00  3.5551E+02  1.0710E+01
  1.8447E+02  0.0000E+00  2.8723E+02  1.0593E+01
  1.8324E+02  0.0000E+00  2.8950E+02  1.0552E+01
  1.8202E+02  0.0000E+00  2.4118E+02  1.0469E+01
  1.8081E+02  0.0000E+00  2.2768E+02  1.0419E+01
  1.7961E+02  0.0000E+00  1.9272E+02  1.0395E+01
  1.7843E+02  0.0000E+00  1.8364E+02  1.0294E+01
  1.7725E+02  0.0000E+00  1.9961E+02  1.0301E+01
  1.7609E+02  0.0000E+00  1.6350E+02  1.0291E+01
  1.7494E+02  0.0000E+00  1.4490E+02  1.0304E+01
  1.7380E+02  0.0000E+00  1.4000E+02  1.0243E+01
  1.7267E+02  0.0000E+00  1.3140E+02  1.0242E+01
  1.7156E+02  0.0000E+00  1.1408E+02  1.0229E+01
  1.7045E+02  0.0000E+00  1.2089E+02  1.0181E+01
  1.6935E+02  0.0000E+00  9.8448E+01  1.0253E+01
  1.6827E+02  0.0000E+00  1.0525E+02  1.0252E+01
  1.6719E+02  0.0000E+00  1.0498E+02  1.0214E+01
  1.6613E+02  0.0000E+00  9.1964E+01  1.0251E+01
  1.6507E+02  0.0000E+00  5.4998E+01  1.1566E+01
  1.6403E+02  0.0000E+00  8.5712E+01  1.1491E+01
  1.6300E+02  0.0000E+00  7.3062E+01  1.0289E+01
  1.6197E+02  0.0000E+00  7.3063E+01  1.0189E+01
  1.6096E+02  0.0000E+00  6.6387E+01  1.0220E+01
  1.5995E+02  0.0000E+00  6.4985E+01  1.0268E+01
  1.5895E+02  0.0000E+00  6.3910E+01  1.0450E+01
  1.5797E+02  0.0000E+00  7.0716E+01  1.0210E+01
  1.5699E+02  0.0000E+00  6.7604E+01  1.0205E+01
  1.5602E+02  0.0000E+00  5.0298E+01  1.0173E+01
  1.5506E+02  0.0000E+00  5.2020E+01  1.0238E+01
  1.5411E+02  0.0000E+00  5.5482E+01  1.0245E+01
  1.5317E+02  0.0000E+00  3.5732E+01  1.0232E+01
  1.5223E+02  0.0000E+00  7.0455E+01  1.0232E+01
  1.5131E+02  0.0000E+00  4.8247E+01  1.0208E+01
  1.5039E+02  0.0000E+00  4.3476E+01  1.0237E+01
  1.4948E+02  0.0000E+00  5.6930E+01  1.0220E+01
  1.4858E+02  0.0000E+00  4.1629E+01  1.0203E+01
  1.4769E+02  0.0000E+00  5.3263E+01  1.0225E+01
  1.4681E+02  0.0000E+00  4.2316E+01  1.0247E+01
  1.4593E+02  0.0000E+00  4.3189E+01  1.0269E+01
  1.4506E+02  0.0000E+00  5.2474E+01  1.0254E+01
  1.4420E+02  0.0000E+00  3.9706E+01  1.0316E+01
  1.4335E+02  0.0000E+00  3.1676E+01  1.0330E+01
  1.4250E+02  0.0000E+00  2.0666E+01  1.0311E+01
  1.4166E+02  0.0000E+00  3.3530E+01  1.0271E+01
  1.4083E+02  0.0000E+00  3.9104E+01  1.0348E+01
  1.4001E+02  0.0000E+00  3.8772E+01  1.0344E+01
  1.3919E+02  0.0000E+00  3.4310E+01  1.0410E+01
  1.3838E+02  0.0000E+00  2.0355E+01  1.0786E+01
  1.3758E+02  0.0000E+00  2.9272E+01  1.0446E+01
  1.3679E+02  0.0000E+00  3.6567E+01  1.0345E+01
  1.3600E+02  0.0000E+00  3.4918E+01  1.0345E+01
  1.3522E+02  0.0000E+00  2.7243E+01  1.0431E+01
  1.3444E+02  0.0000E+00  4.9806E+00  1.0387E+01
  1.3368E+02  0.0000E+00  3.4039E+01  1.0461E+01
  1.3291E+02  0.0000E+00  1.8568E+01  1.0401E+01
  1.3216E+02  0.0000E+00  3.2965E+01  1.0433E+01
  1.3141E+02  0.0000E+00  4.7603E+01  1.0484E+01
  1.3067E+02  0.0000E+00  2.4679E+01  1.0478E+01
  1.2993E+02  0.0000E+00  2.2835E+01  1.0427E+01
  1.2920E+02  0.0000E+00  2.1868E+01  1.0475E+01
  1.2848E+02  0.0000E+00  4.3255E+01  1.0464E+01
  1.2776E+02  0.0000E+00  1.9976E+01  1.0453E+01
  1.2705E+02  0.0000E+00  2.8310E+01  1.0502E+01
  1.2634E+02  0.0000E+00  3.4675E+01  1.0447E+01
  1.2564E+02  0.0000E+00  2.4764E+01  1.0472E+01
  1.2495E+02  0.0000E+00  3.0472E+01  1.0517E+01
  1.2426E+02  0.0000E+00  2.0303E+01  1.0457E+01
  1.2358E+02  0.0000E+00  2.3083E+01  1.0498E+01
  1.2290E+02  0.0000E+00  3.8402E+01  1.0536E+01
  1.2223E+02  0.0000E+00  3.6328E+01  1.0639E+01
  1.2156E+02  0.0000E+00  3.1698E+01  1.0765E+01
  1.2090E+02  0.0000E+00  4.3222E+01  1.5114E+01
  1.1960E+02  0.0000E+00  3.1752E+01  1.1810E+01
  1.1895E+02  0.0000E+00  4.2883E+01  1.0736E+01
  1.1832E+02  0.0000E+00  2.0585E+01  1.0585E+01
  1.1768E+02  0.0000E+00  1.3192E+01  1.0570E+01
  1.1705E+02  0.0000E+00  3.4191E+01  1.0577E+01
  1.1643E+02  0.0000E+00  9.4094E+00  1.0570E+01
  1.1581E+02  0.0000E+00  2.3830E+01  1.0639E+01
  1.1519E+02  0.0000E+00  2.2569E+00  1.0582E+01
  1.1459E+02  0.0000E+00  1.8349E+01  1.0567E+01
  1.1398E+02  0.0000E+00  9.7734E+00  1.0613E+01
  1.1338E+02  0.0000E+00  2.2051E+01  1.0629E+01
  1.1279E+02  0.0000E+00  1.8144E+01  1.0595E+01
  1.1220E+02  0.0000E+00  1.3067E+01  1.0634E+01
  1.1161E+02  0.0000E+00  9.1464E+00  1.0620E+01
  1.1103E+02  0.0000E+00  6.4890E+00  1.0647E+01
  1.1045E+02  0.0000E+00  1.9758E+01  1.0610E+01
  1.0988E+02  0.0000E+00  2.0434E+01  1.0673E+01
  1.0931E+02  0.0000E+00  1.2282E+01  1.0751E+01
  1.0875E+02  0.0000E+00  1.9302E+01  1.1356E+01
  1.0819E+02  0.0000E+00  3.2296E+01  1.1107E+01
  1.0763E+02  0.0000E+00  9.2300E+00  1.0774E+01
  1.0708E+02  0.0000E+00  2.0889E+01  1.0750E+01
  1.0654E+02  0.0000E+00  1.7146E+01  1.0725E+01
  1.0600E+02  0.0000E+00  3.5300E+01  1.0715E+01
  1.0546E+02  0.0000E+00  2.8996E+01  1.0736E+01
  1.0492E+02  0.0000E+00  2.8163E+01  1.0727E+01
  1.0439E+02  0.0000E+00  2.5098E+01  1.0768E+01
  1.0387E+02  0.0000E+00  2.5224E+01  1.0802E+01
  1.0331E+02  0.0000E+00  3.2943E+01  9.5982E+00
  1.0237E+02  0.0000E+00  6.7134E+00  7.6484E+00
  1.0135E+02  0.0000E+00  1.9734E+01  7.6621E+00
  1.0035E+02  0.0000E+00  1.8933E+01  7.9126E+00
  9.9360E+01  0.0000E+00  2.3191E+01  8.1896E+00
  9.8387E+01  0.0000E+00  2.8422E+01  7.6976E+00
  9.7428E+01  0.0000E+00  1.9800E+01  7.7055E+00
  9.6483E+01  0.0000E+00  2.6014E+01  7.7340E+00
  9.5552E+01  0.0000E+00  1.8452E+01  7.7123E+00
  9.4635E+01  0.0000E+00  1.4679E+00  7.7514E+00
  9.3730E+01  0.0000E+00  2.0039E+01  7.7755E+00
  9.2838E+01  0.0000E+00  2.2272E+01  7.8315E+00
  9.1959E+01  0.0000E+00  7.1934E+00  7.9324E+00
  9.1093E+01  0.0000E+00  2.0200E+01  8.1880E+00
  8.9396E+01  0.0000E+00  4.8151E+01  2.0142E+01
  8.8566E+01  0.0000E+00  2.6588E+01  8.3303E+00
  8.7746E+01  0.0000E+00  1.8388E+01  7.9090E+00
  8.6939E+01  0.0000E+00  1.0972E+01  7.9368E+00
  8.5356E+01  0.0000E+00  1.0541E+01  9.4969E+00
  8.4581E+01  0.0000E+00  2.0984E+01  8.7882E+00
  8.3816E+01  0.0000E+00  8.7633E+00  7.9418E+00
  8.3062E+01  0.0000E+00  3.8552E+01  7.9119E+00
  8.2318E+01  0.0000E+00  2.4561E+01  7.9015E+00
  8.1584E+01  0.0000E+00  2.6113E+01  7.9076E+00
  8.0859E+01  0.0000E+00  1.4291E+01  7.8813E+00
  8.0145E+01  0.0000E+00  1.8745E+01  7.9182E+00
  7.9439E+01  0.0000E+00  6.6858E+00  7.9167E+00
  7.8743E+01  0.0000E+00  1.3080E+01  7.9248E+00
  7.8056E+01  0.0000E+00  1.2873E+01  7.9424E+00
  7.7378E+01  0.0000E+00  1.1899E+01  7.9604E+00
  7.6709E+01  0.0000E+00  2.5867E+01  7.9347E+00
  7.6048E+01  0.0000E+00  1.5345E+01  7.9529E+00
  7.5396E+01  0.0000E+00  2.2607E+01  7.9944E+00
  7.4117E+01  0.0000E+00  2.3498E+00  7.9892E+00
  7.3490E+01  0.0000E+00  1.7935E+01  8.0394E+00
  7.2870E+01  0.0000E+00  2.1047E+01  8.0412E+00
  7.2258E+01  0.0000E+00  2.0436E+01  8.0770E+00
  7.1654E+01  0.0000E+00  1.3989E+01  8.0705E+00
  7.1058E+01  0.0000E+00  1.2512E+01  8.0874E+00
  7.0469E+01  0.0000E+00  2.6290E+01  8.0753E+00
  6.9312E+01  0.0000E+00  1.0776E+01  8.1306E+00
  6.8745E+01  0.0000E+00  1.0119E+01  8.1354E+00
  6.8184E+01  0.0000E+00  1.2608E+01  8.1582E+00
  6.7630E+01  0.0000E+00  3.4111E+01  8.2778E+00
  6.7083E+01  0.0000E+00  2.0934E+01  1.0492E+01
  6.6543E+01  0.0000E+00  1.6922E+01  9.2097E+00
  6.6009E+01  0.0000E+00  3.0175E+00  8.2491E+00
  6.5481E+01  0.0000E+00  1.2676E+01  8.1588E+00
  6.4960E+01  0.0000E+00  1.9324E+01  8.2378E+00
  6.4445E+01  0.0000E+00  2.1864E+01  8.2368E+00
  6.3936E+01  0.0000E+00  1.6908E+01  8.5551E+00
  6.3433E+01  0.0000E+00  1.8018E+01  8.3627E+00
  6.2936E+01  0.0000E+00  2.5144E+01  8.2290E+00
  6.2445E+01  0.0000E+00  2.8483E+01  8.2698E+00
  6.1959E+01  0.0000E+00  6.2639E+00  8.2536E+00
  6.1479E+01  0.0000E+00  2.2385E+01  8.2713E+00
  6.1005E+01  0.0000E+00  2.4632E+01  8.2556E+00
  6.0536E+01  0.0000E+00  1.1786E+01  8.2420E+00
  6.0073E+01  0.0000E+00  9.8777E+00  8.3030E+00
  5.9615E+01  0.0000E+00  1.7616E+01  8.3433E+00
  5.9162E+01  0.0000E+00  8.5424E+00  8.3255E+00
  5.8714E+01  0.0000E+00  9.2320E+00  8.3467E+00
  5.8271E+01  0.0000E+00  1.9558E+01  8.3206E+00
  5.7834E+01  0.0000E+00  2.0993E-01  8.3273E+00
  5.6973E+01  0.0000E+00  1.3731E+01  8.3685E+00
  5.6550E+01  0.0000E+00  1.2311E+01  8.4036E+00
  5.6131E+01  0.0000E+00  1.5708E+01  8.4022E+00
  5.5308E+01  0.0000E+00  1.5298E+01  8.3597E+00
  5.4903E+01  0.0000E+00  1.6568E+01  8.4359E+00
  5.4503E+01  0.0000E+00  2.3039E+01  8.4328E+00
  5.4107E+01  0.0000E+00  9.7044E+00  8.4458E+00
  5.3715E+01  0.0000E+00  1.7218E+01  8.4693E+00
  5.3327E+01  0.0000E+00  1.3026E+01  8.4532E+00
  5.2944E+01  0.0000E+00  7.1685E+00  8.4820E+00
  5.2565E+01  0.0000E+00  1.3335E+01  8.4758E+00
  5.2190E+01  0.0000E+00  1.1324E+01  8.4753E+00
  5.1819E+01  0.0000E+00  2.0058E+01  8.5135E+00
  5.1451E+01  0.0000E+00  1.5007E+01  8.5091E+00
  5.1088E+01  0.0000E+00  7.8045E+00  8.4870E+00
  5.0729E+01  0.0000E+00  2.1824E+01  8.5589E+00
  5.0373E+01  0.0000E+00  1.2009E+01  8.5504E+00
  5.0021E+01  0.0000E+00  7.0740E+00  8.5443E+00
  4.9673E+01  0.0000E+00  1.3236E+01  8.5763E+00
  4.9328E+01  0.0000E+00  9.1866E+00  8.5798E+00
  4.8987E+01  0.0000E+00  9.9531E+00  8.5741E+00
  4.8649E+01  0.0000E+00  1.4697E+01  8.6082E+00
  4.8315E+01  0.0000E+00  2.2417E+01  8.6096E+00
  4.7985E+01  0.0000E+00  1.8070E+01  8.6074E+00
  4.7657E+01  0.0000E+00  5.5960E+00  8.6202E+00
  4.7334E+01  0.0000E+00  6.2013E+00  8.6337E+00
  4.6696E+01  0.0000E+00  1.7592E+01  8.6534E+00
  4.6381E+01  0.0000E+00  6.7040E+00  8.7178E+00
  4.6070E+01  0.0000E+00  1.2046E+01  8.6334E+00
  4.5762E+01  0.0000E+00  3.1480E+00  8.6722E+00
  4.5458E+01  0.0000E+00  1.6413E+01  8.6621E+00
  4.5156E+01  0.0000E+00  1.7248E+01  8.6973E+00
  4.4857E+01  0.0000E+00  2.5149E+01  8.6902E+00
  4.4561E+01  0.0000E+00  6.2908E+00  8.6938E+00
  4.4268E+01  0.0000E+00  1.9857E+00  8.7534E+00
  4.3978E+01  0.0000E+00  2.1247E+01  8.7732E+00
  4.3691E+01  0.0000E+00  9.0425E+00  8.7139E+00
  4.3407E+01  0.0000E+00  9.3803E-01  8.7545E+00
  4.3125E+01  0.0000E+00  1.2088E+00  8.8049E+00
  4.2846E+01  0.0000E+00  2.2922E+01  8.7996E+00
  4.2025E+01  0.0000E+00  2.0892E+01  8.8070E+00
  4.1491E+01  0.0000E+00  2.9444E+01  8.8089E+00
  4.1228E+01  0.0000E+00  1.4014E+01  8.8649E+00
  4.0967E+01  0.0000E+00  2.4675E+01  8.8637E+00
  4.0709E+01  0.0000E+00  1.2781E+01  8.8822E+00
  4.0453E+01  0.0000E+00  1.3562E+01  8.8879E+00
  4.0200E+01  0.0000E+00  9.8942E+00  8.9325E+00
  3.9949E+01  0.0000E+00  6.8477E+00  8.9031E+00
  3.9700E+01  0.0000E+00  1.5476E+01  8.9303E+00
  3.9454E+01  0.0000E+00  5.4298E+00  8.9450E+00
  3.9209E+01  0.0000E+00  2.2333E+01  8.8916E+00
  3.8968E+01  0.0000E+00  1.6351E+01  8.9020E+00
  3.8728E+01  0.0000E+00  2.5856E+01  8.9684E+00
  3.8255E+01  0.0000E+00  1.5110E+00  8.9760E+00
  3.8022E+01  0.0000E+00  1.5442E+01  8.9717E+00
  3.7562E+01  0.0000E+00  6.0715E+00  9.0196E+00
  3.7336E+01  0.0000E+00  7.5683E+00  9.0166E+00
  3.7111E+01  0.0000E+00  9.4677E+00  9.0542E+00
  3.6449E+01  0.0000E+00  1.3076E+01  9.0648E+00
  3.6232E+01  0.0000E+00  1.6111E+01  9.0412E+00
  3.6017E+01  0.0000E+00  1.3920E+01  9.0462E+00
  3.5804E+01  0.0000E+00  1.5402E+01  9.1065E+00
  3.5593E+01  0.0000E+00  8.4511E+00  9.0745E+00
  3.5384E+01  0.0000E+00  2.2492E+01  9.0913E+00
  3.5176E+01  0.0000E+00  3.8771E+00  9.1295E+00
  3.4971E+01  0.0000E+00  1.2629E+01  9.1301E+00
  3.4767E+01  0.0000E+00  2.0529E+01  9.1327E+00
  3.4565E+01  0.0000E+00  1.3139E+01  9.1470E+00
  3.4365E+01  0.0000E+00  9.0051E+00  9.1589E+00
  3.4166E+01  0.0000E+00  1.8738E+01  9.1343E+00
  3.3970E+01  0.0000E+00  2.9340E+00  9.1991E+00
  3.3774E+01  0.0000E+00  1.4472E+01  9.1633E+00
  3.3581E+01  0.0000E+00  2.9427E+01  9.2055E+00
  3.3389E+01  0.0000E+00  1.0669E+01  9.1532E+00
  3.3199E+01  0.0000E+00  1.1368E+01  9.2001E+00
  3.3011E+01  0.0000E+00  2.9117E+01  9.2377E+00
  3.2824E+01  0.0000E+00  1.4890E+01  9.2239E+00
  3.2638E+01  0.0000E+00  2.4344E+01  9.2418E+00
  3.2455E+01  0.0000E+00  1.2038E+01  9.2247E+00
  3.2272E+01  0.0000E+00  1.9287E+01  9.2231E+00
  3.2092E+01  0.0000E+00  4.2501E+00  9.2816E+00
  3.1913E+01  0.0000E+00  7.0565E+00  9.2807E+00
  3.1735E+01  0.0000E+00  1.4834E+01  9.3008E+00
  3.1559E+01  0.0000E+00  3.0062E+00  9.2944E+00
  3.1384E+01  0.0000E+00  1.7053E+01  9.3107E+00
  3.1211E+01  0.0000E+00  4.5594E+00  9.2696E+00
  3.1039E+01  0.0000E+00  1.1088E+01  9.3292E+00
  3.0869E+01  0.0000E+00  2.7404E+01  9.3786E+00
  3.0699E+01  0.0000E+00  8.4842E+00  9.3491E+00
  3.0532E+01  0.0000E+00  2.2932E+01  9.3325E+00
  3.0366E+01  0.0000E+00  8.5257E+00  9.3550E+00
  3.0201E+01  0.0000E+00  9.1533E+00  9.3780E+00
  3.0037E+01  0.0000E+00  2.2231E+01  9.3893E+00
  2.9875E+01  0.0000E+00  3.2324E+01  9.3640E+00
  2.9714E+01  0.0000E+00  1.7499E+01  9.4416E+00
  2.9554E+01  0.0000E+00  1.1718E+01  9.4083E+00
  2.9396E+01  0.0000E+00  1.6948E+01  9.4459E+00
  2.9239E+01  0.0000E+00  9.2010E+00  9.4280E+00
  2.9083E+01  0.0000E+00  9.6534E+00  9.4994E+00
  2.8928E+01  0.0000E+00  5.6961E+00  9.4884E+00
  2.8775E+01  0.0000E+00  1.9756E+01  9.4871E+00
  2.8623E+01  0.0000E+00  1.2317E+01  9.5214E+00
  2.8472E+01  0.0000E+00  1.7717E+01  9.5348E+00
  2.8174E+01  0.0000E+00  2.7657E+01  9.6022E+00
  2.8026E+01  0.0000E+00  1.8058E+00  9.7935E+00
  2.7880E+01  0.0000E+00  1.6455E+01  1.0372E+01
  2.7735E+01  0.0000E+00  1.3427E+01  1.1837E+01
  2.7591E+01  0.0000E+00  1.9101E+01  1.2220E+01
  2.7448E+01  0.0000E+00  1.7567E+01  1.0945E+01
  2.7306E+01  0.0000E+00  8.9881E-01  9.9605E+00
  2.7165E+01  0.0000E+00  7.4464E+00  9.7273E+00
  2.7026E+01  0.0000E+00  8.5611E+00  9.6527E+00
  2.6750E+01  0.0000E+00  1.8596E+01  9.6126E+00
  2.6614E+01  0.0000E+00  4.8263E+00  9.6358E+00
  2.6478E+01  0.0000E+00  2.0770E+01  9.6381E+00
  2.6344E+01  0.0000E+00  1.9405E+01  9.6172E+00
  2.6211E+01  0.0000E+00  1.3541E+01  9.6225E+00
  2.5947E+01  0.0000E+00  3.4203E+01  9.6566E+00
  2.5677E+01  0.0000E+00  4.1942E+00  8.6662E+00
  2.5444E+01  0.0000E+00  1.3892E+01  6.8450E+00
  2.5192E+01  0.0000E+00  4.1858E+00  6.8568E+00
  2.4944E+01  0.0000E+00  1.5155E+01  6.8623E+00
  2.4699E+01  0.0000E+00  1.3314E+01  6.8810E+00
  2.4458E+01  0.0000E+00  1.0417E+01  6.9154E+00
  2.4220E+01  0.0000E+00  3.9036E+00  6.9148E+00
  2.3986E+01  0.0000E+00  7.5200E+00  6.9340E+00
  2.3755E+01  0.0000E+00  1.2616E+01  6.9416E+00
  2.3528E+01  0.0000E+00  1.4024E+01  6.9554E+00
  2.3303E+01  0.0000E+00  2.2075E+01  6.9670E+00
  2.3082E+01  0.0000E+00  1.3805E+01  6.9684E+00
  2.2864E+01  0.0000E+00  1.4926E+01  6.9989E+00
  2.2650E+01  0.0000E+00  1.0533E+01  6.9931E+00
  2.2438E+01  0.0000E+00  1.2002E+01  7.0072E+00
  2.2229E+01  0.0000E+00  1.3150E+01  7.0292E+00
  2.2023E+01  0.0000E+00  1.6672E+01  7.0467E+00
  2.1820E+01  0.0000E+00  1.9816E+01  7.0657E+00
  2.1619E+01  0.0000E+00  1.6251E+01  7.0458E+00
  2.1422E+01  0.0000E+00  2.5699E-01  7.0678E+00
  2.1227E+01  0.0000E+00  5.7547E+00  7.0849E+00
  2.1035E+01  0.0000E+00  8.6974E+00  7.1133E+00
  2.0845E+01  0.0000E+00  1.9998E+01  7.1170E+00
  2.0658E+01  0.0000E+00  1.0617E+01  7.1224E+00
  2.0291E+01  0.0000E+00  6.6458E+00  7.1801E+00
  2.0111E+01  0.0000E+00  1.3797E+01  7.1873E+00
  1.9934E+01  0.0000E+00  8.6609E+00  7.1875E+00
  1.9759E+01  0.0000E+00  1.4400E+01  7.1960E+00
  1.9586E+01  0.0000E+00  2.7133E+01  7.1969E+00
  1.9416E+01  0.0000E+00  2.2581E+01  7.2379E+00
  1.9248E+01  0.0000E+00  2.6871E+01  7.2526E+00
  1.9082E+01  0.0000E+00  1.9971E-01  7.2522E+00
  1.8918E+01  0.0000E+00  2.2177E+01  7.2990E+00
  1.8756E+01  0.0000E+00  3.5960E+01  7.2969E+00
  1.8596E+01  0.0000E+00  2.1939E+01  7.3409E+00
  1.8438E+01  0.0000E+00  1.9081E+01  7.4100E+00
  1.8283E+01  0.0000E+00  7.1084E+00  7.3924E+00
  1.8129E+01  0.0000E+00  7.2716E+00  7.3410E+00
  1.7977E+01  0.0000E+00  1.4699E+01  7.3466E+00
  1.7827E+01  0.0000E+00  2.1061E+01  7.3348E+00
  1.7679E+01  0.0000E+00  4.4816E+00  7.3556E+00
  1.7533E+01  0.0000E+00  5.7856E+00  7.3559E+00
  1.7389E+01  0.0000E+00  1.4670E+01  7.3795E+00
  1.7246E+01  0.0000E+00  2.0844E+01  7.3801E+00
  1.7105E+01  0.0000E+00  1.1124E+01  7.4003E+00
  1.6966E+01  0.0000E+00  7.9506E+00  7.4098E+00
  1.6828E+01  0.0000E+00  2.1027E+01  7.4354E+00
  1.6693E+01  0.0000E+00  1.6406E+01  7.4390E+00
  1.6426E+01  0.0000E+00  1.6393E+00  7.4636E+00
  1.6295E+01  0.0000E+00  6.6660E+00  7.5134E+00
  1.6165E+01  0.0000E+00  1.3413E+01  7.4976E+00
  1.6038E+01  0.0000E+00  1.6087E+01  7.4947E+00
  1.5786E+01  0.0000E+00  7.2602E+00  7.5157E+00
  1.5663E+01  0.0000E+00  1.5412E+01  7.5342E+00
  1.5541E+01  0.0000E+00  9.4063E+00  7.5448E+00
  1.5420E+01  0.0000E+00  1.7692E+01  7.5824E+00
  1.5301E+01  0.0000E+00  1.8994E+01  7.5660E+00
  1.5183E+01  0.0000E+00  2.2989E+00  7.5836E+00
  1.5067E+01  0.0000E+00  1.5999E+01  7.5657E+00
  1.4952E+01  0.0000E+00  5.5180E+00  7.5981E+00
  1.4838E+01  0.0000E+00  7.4255E+00  7.5886E+00
  1.4726E+01  0.0000E+00  2.5008E+00  7.6317E+00
  1.4614E+01  0.0000E+00  1.0530E+01  7.6488E+00
  1.4504E+01  0.0000E+00  5.8540E+00  7.6429E+00
  1.4396E+01  0.0000E+00  2.2340E+01  7.6830E+00
  1.4288E+01  0.0000E+00  2.7162E+00  7.6753E+00
  1.4182E+01  0.0000E+00  1.2488E+01  7.7265E+00
  1.4077E+01  0.0000E+00  2.6647E+00  7.7177E+00
  1.3973E+01  0.0000E+00  1.6436E+01  7.7130E+00
  1.3870E+01  0.0000E+00  1.9087E+01  7.7302E+00
  1.3768E+01  0.0000E+00  8.2089E+00  7.7497E+00
  1.3668E+01  0.0000E+00  1.6321E+01  7.7510E+00
  1.3568E+01  0.0000E+00  6.4764E+00  7.7782E+00
  1.3470E+01  0.0000E+00  1.2879E+00  7.7889E+00
  1.3373E+01  0.0000E+00  1.4594E+01  7.7797E+00
  1.3276E+01  0.0000E+00  1.5590E+01  7.8158E+00
  1.3181E+01  0.0000E+00  1.3914E+01  7.8160E+00
  1.3087E+01  0.0000E+00  9.1586E+00  7.8378E+00
  1.2994E+01  0.0000E+00  1.7021E+01  7.8225E+00
  1.2902E+01  0.0000E+00  1.3311E+01  7.8333E+00
  1.2810E+01  0.0000E+00  2.7960E+00  7.8550E+00
  1.2720E+01  0.0000E+00  9.6629E+00  7.8796E+00
  1.2631E+01  0.0000E+00  2.7100E+01  7.9031E+00
  1.2542E+01  0.0000E+00  1.1794E+01  7.8856E+00
  1.2368E+01  0.0000E+00  1.4835E+01  7.9217E+00
  1.2283E+01  0.0000E+00  2.4038E+01  7.9285E+00
  1.2198E+01  0.0000E+00  2.3875E+01  7.9405E+00
  1.2114E+01  0.0000E+00  6.9518E+00  7.9815E+00
  1.2031E+01  0.0000E+00  2.5597E+01  7.9705E+00
  1.1949E+01  0.0000E+00  1.2504E+01  8.0070E+00
  1.1868E+01  0.0000E+00  1.7084E+01  8.0104E+00
  1.1787E+01  0.0000E+00  1.8421E+01  8.0134E+00
  1.1707E+01  0.0000E+00  1.8414E+01  8.0201E+00
  1.1628E+01  0.0000E+00  1.8036E+01  8.0410E+00
  1.1550E+01  0.0000E+00  1.1862E+01  8.0336E+00
  1.1473E+01  0.0000E+00  1.2498E+01  8.0719E+00
  1.1397E+01  0.0000E+00  9.2617E+00  8.0955E+00
  1.1321E+01  0.0000E+00  6.7199E+00  8.0763E+00
  1.1246E+01  0.0000E+00  1.0040E+01  8.0966E+00
  1.1171E+01  0.0000E+00  1.4098E+01  8.1025E+00
  1.1098E+01  0.0000E+00  7.0306E-01  8.1126E+00
  1.1025E+01  0.0000E+00  1.9085E+01  8.1573E+00
  1.0953E+01  0.0000E+00  2.6011E+01  8.1611E+00
  1.0882E+01  0.0000E+00  1.5327E+01  8.1683E+00
  1.0811E+01  0.0000E+00  2.4070E+01  8.1399E+00
  1.0741E+01  0.0000E+00  1.1478E+01  8.1669E+00
  1.0672E+01  0.0000E+00  5.0527E+00  8.1735E+00
  1.0603E+01  0.0000E+00  1.9721E+01  8.1947E+00
  1.0535E+01  0.0000E+00  1.9076E+01  8.1982E+00
  1.0468E+01  0.0000E+00  1.4332E+01  8.2177E+00
  1.0401E+01  0.0000E+00  6.8803E+00  8.2103E+00
  1.0335E+01  0.0000E+00  1.3615E+01  8.2470E+00
  1.0269E+01  0.0000E+00  3.0097E+01  8.2452E+00
  1.0204E+01  0.0000E+00  2.0872E+01  8.2736E+00
  1.0140E+01  0.0000E+00  1.7308E+01  8.2728E+00
  1.0077E+01  0.0000E+00  1.1403E+01  8.2810E+00
  1.0014E+01  0.0000E+00  2.0012E+01  8.2916E+00
  9.9512E+00  0.0000E+00  1.8276E+01  8.3182E+00
  9.8894E+00  0.0000E+00  2.7013E+01  8.3053E+00
  9.8281E+00  0.0000E+00  4.2986E+00  8.3472E+00
  9.7674E+00  0.0000E+00  1.7302E+01  8.3633E+00
  9.7072E+00  0.0000E+00  1.3411E+01  8.3754E+00
  9.6477E+00  0.0000E+00  1.7008E+01  8.3789E+00
  9.5886E+00  0.0000E+00  7.7069E+00  8.3825E+00
  9.4722E+00  0.0000E+00  1.8383E+01  8.3764E+00
  9.4147E+00  0.0000E+00  1.8663E+01  8.3804E+00
  9.3578E+00  0.0000E+00  8.7207E+00  8.4474E+00
  9.3014E+00  0.0000E+00  2.1675E+01  8.4491E+00
  9.1901E+00  0.0000E+00  2.0585E+01  8.4568E+00
  9.1352E+00  0.0000E+00  1.1613E+01  8.4681E+00
  9.0808E+00  0.0000E+00  1.7870E+01  8.4765E+00
  9.0269E+00  0.0000E+00  8.9980E+00  8.5106E+00
  8.9735E+00  0.0000E+00  4.6866E+00  8.5054E+00
  8.9205E+00  0.0000E+00  5.2649E+00  8.5232E+00
  8.8159E+00  0.0000E+00  7.5386E+00  8.5559E+00
  8.7644E+00  0.0000E+00  1.1004E+01  8.5237E+00
  8.6625E+00  0.0000E+00  6.5298E+00  8.5765E+00
  8.6123E+00  0.0000E+00  1.4458E+01  8.5978E+00
  8.5625E+00  0.0000E+00  1.2192E+01  8.6226E+00
  8.5131E+00  0.0000E+00  2.7682E+01  8.5750E+00
  8.4642E+00  0.0000E+00  1.9743E+01  8.6170E+00
  8.4156E+00  0.0000E+00  1.6767E+01  8.6270E+00
  8.3637E+00  0.0000E+00  7.7794E+00  7.7055E+00
  8.2773E+00  0.0000E+00  2.0714E+01  6.1350E+00
  8.1838E+00  0.0000E+00  1.3058E+01  6.1450E+00
  8.0919E+00  0.0000E+00  1.0937E+01  6.1580E+00
  8.0016E+00  0.0000E+00  1.2626E+01  6.1836E+00
  7.9127E+00  0.0000E+00  1.7699E+01  6.1901E+00
  7.8253E+00  0.0000E+00  1.9907E+01  6.1945E+00
  7.7394E+00  0.0000E+00  7.3515E+00  6.2302E+00
  7.6549E+00  0.0000E+00  1.2562E+01  6.2271E+00
  7.4899E+00  0.0000E+00  1.4374E+01  6.2910E+00
  7.4094E+00  0.0000E+00  1.3691E+01  6.2769E+00
  7.3302E+00  0.0000E+00  9.5255E+00  6.3082E+00
  7.2523E+00  0.0000E+00  7.9638E+00  6.3055E+00
  7.1756E+00  0.0000E+00  5.1329E+00  6.3244E+00
  7.1001E+00  0.0000E+00  1.5040E+01  6.3358E+00
  7.0258E+00  0.0000E+00  1.3090E+01  6.3620E+00
  6.9526E+00  0.0000E+00  6.0250E+00  6.3660E+00
  6.8806E+00  0.0000E+00  1.1056E+01  6.3981E+00
  6.8097E+00  0.0000E+00  1.7216E+00  6.4175E+00
  6.7399E+00  0.0000E+00  1.0407E+01  6.4264E+00
  6.6712E+00  0.0000E+00  1.5778E+01  6.4573E+00
  6.6035E+00  0.0000E+00  8.6288E+00  6.4599E+00
  6.5369E+00  0.0000E+00  1.0257E+01  6.4767E+00
  6.4712E+00  0.0000E+00  1.2540E+01  6.4930E+00
  6.4065E+00  0.0000E+00  1.3066E+01  6.5044E+00
  6.3428E+00  0.0000E+00  1.0932E+01  6.5259E+00
  6.2800E+00  0.0000E+00  1.8859E+01  6.5453E+00
  6.2182E+00  0.0000E+00  1.4896E+01  6.5479E+00
  6.1573E+00  0.0000E+00  1.9647E+00  6.5689E+00
  6.0972E+00  0.0000E+00  6.2210E-01  6.5727E+00
  6.0381E+00  0.0000E+00  2.1435E+01  6.5779E+00
  5.9798E+00  0.0000E+00  9.3853E+00  6.6078E+00
  5.9223E+00  0.0000E+00  1.1481E+01  6.6372E+00
  5.8657E+00  0.0000E+00  1.5416E+01  6.6441E+00
  5.8098E+00  0.0000E+00  2.3821E+01  6.6676E+00
  5.7548E+00  0.0000E+00  2.0745E+01  6.6619E+00
  5.6470E+00  0.0000E+00  9.4172E+00  6.7125E+00
  5.5943E+00  0.0000E+00  1.7515E+01  6.7201E+00
  5.5423E+00  0.0000E+00  1.6014E+01  6.7250E+00
  5.4910E+00  0.0000E+00  1.9433E+01  6.7396E+00
  5.4404E+00  0.0000E+00  1.7994E+01  6.7741E+00
  5.3905E+00  0.0000E+00  1.1459E+01  6.7838E+00
  5.3413E+00  0.0000E+00  1.4466E+01  6.8131E+00
  5.2928E+00  0.0000E+00  1.2355E+01  6.8598E+00
  5.2449E+00  0.0000E+00  3.0753E+01  6.8871E+00
  5.1977E+00  0.0000E+00  1.4703E+01  6.9067E+00
  5.1511E+00  0.0000E+00  1.2247E+01  6.9038E+00
  5.1051E+00  0.0000E+00  9.5275E+00  6.9005E+00
  5.0597E+00  0.0000E+00  6.1444E+00  6.9251E+00
  5.0150E+00  0.0000E+00  1.1736E+01  6.9200E+00
  4.9708E+00  0.0000E+00  1.7370E+01  6.9338E+00
  4.9272E+00  0.0000E+00  1.4690E+01  6.9471E+00
  4.8842E+00  0.0000E+00  2.0239E+01  6.9582E+00
  4.8418E+00  0.0000E+00  1.4400E+01  6.9541E+00
  4.7999E+00  0.0000E+00  3.1851E+00  6.9686E+00
  4.7585E+00  0.0000E+00  1.6169E+01  6.9992E+00
  4.7177E+00  0.0000E+00  1.0440E+01  7.0278E+00
  4.6774E+00  0.0000E+00  1.3617E+01  7.0388E+00
  4.6376E+00  0.0000E+00  1.6698E+01  7.0464E+00
  4.5983E+00  0.0000E+00  2.9898E+01  7.0700E+00
  4.5595E+00  0.0000E+00  8.7665E+00  7.0682E+00
  4.4834E+00  0.0000E+00  1.1328E+01  7.0994E+00
  4.4461E+00  0.0000E+00  4.2321E+00  7.1168E+00
  4.4092E+00  0.0000E+00  1.5503E+01  7.1478E+00
  4.3728E+00  0.0000E+00  7.3441E+00  7.1353E+00
  4.3368E+00  0.0000E+00  1.2334E+01  7.1556E+00
  4.3013E+00  0.0000E+00  1.2892E+01  7.1730E+00
  4.2662E+00  0.0000E+00  1.5845E+01  7.1816E+00
  4.2315E+00  0.0000E+00  3.3691E+01  7.2229E+00
  4.1973E+00  0.0000E+00  1.1230E+01  7.2043E+00
  4.1634E+00  0.0000E+00  7.4181E+00  7.2381E+00
  4.1300E+00  0.0000E+00  2.2008E+01  7.2373E+00
  4.0970E+00  0.0000E+00  1.1327E+00  7.2717E+00
  4.0643E+00  0.0000E+00  2.3170E+01  7.2732E+00
  4.0321E+00  0.0000E+00  2.7638E+01  7.3049E+00
  4.0002E+00  0.0000E+00  1.8474E+01  7.3067E+00
  3.9688E+00  0.0000E+00  1.2398E+01  7.3232E+00
  3.9376E+00  0.0000E+00  1.6649E+01  7.3355E+00
  3.9069E+00  0.0000E+00  8.2868E+00  7.3577E+00
  3.8765E+00  0.0000E+00  2.0032E+01  7.3461E+00
  3.8465E+00  0.0000E+00  3.4903E+01  7.3699E+00
  3.8168E+00  0.0000E+00  2.5319E+01  7.4014E+00
  3.7874E+00  0.0000E+00  1.3386E+01  7.4137E+00
  3.7584E+00  0.0000E+00  1.8426E+01  7.4200E+00
  3.7297E+00  0.0000E+00  1.2863E+01  7.4434E+00
  3.7014E+00  0.0000E+00  1.9812E+01  7.4346E+00
  3.6734E+00  0.0000E+00  1.7623E+01  7.4694E+00
  3.6456E+00  0.0000E+00  5.1501E+00  7.4889E+00
  3.6182E+00  0.0000E+00  2.1591E+01  7.4824E+00
  3.5912E+00  0.0000E+00  2.5063E+01  7.5178E+00
  3.5644E+00  0.0000E+00  7.6280E+00  7.5327E+00
  3.5379E+00  0.0000E+00  9.9887E+00  7.5600E+00
  3.5117E+00  0.0000E+00  1.9114E+01  7.5501E+00
  3.4858E+00  0.0000E+00  2.6442E+01  7.5766E+00
  3.4348E+00  0.0000E+00  1.9147E+01  7.5959E+00
  3.4098E+00  0.0000E+00  1.9880E+01  7.6350E+00
  3.3830E+00  0.0000E+00  1.8678E+01  6.8267E+00
  3.3386E+00  0.0000E+00  1.4979E+01  5.4146E+00
  3.2909E+00  0.0000E+00  9.5957E+00  5.4397E+00
  3.2441E+00  0.0000E+00  1.6398E+01  5.4558E+00
  3.1983E+00  0.0000E+00  1.2141E+01  5.4721E+00
  3.1535E+00  0.0000E+00  2.0130E+01  5.4941E+00
  3.1096E+00  0.0000E+00  2.0643E+01  5.5240E+00
  3.0667E+00  0.0000E+00  1.2999E+01  5.5362E+00
  3.0246E+00  0.0000E+00  1.8478E+01  5.5607E+00
  2.9834E+00  0.0000E+00  1.7027E+01  5.5884E+00
  2.9430E+00  0.0000E+00  1.0770E+01  5.6044E+00
  2.9034E+00  0.0000E+00  1.4188E+01  5.6121E+00
  2.8647E+00  0.0000E+00  1.7487E+01  5.6394E+00
  2.8267E+00  0.0000E+00  1.2028E+01  5.6776E+00
  2.7894E+00  0.0000E+00  1.2809E+01  5.6827E+00
  2.7529E+00  0.0000E+00  1.7520E+01  5.7136E+00
  2.7171E+00  0.0000E+00  1.3612E+01  5.7086E+00
  2.6820E+00  0.0000E+00  1.6078E+01  5.7445E+00
  2.6475E+00  0.0000E+00  1.4028E+01  5.7747E+00
  2.6137E+00  0.0000E+00  2.4845E+01  5.7701E+00
  2.5806E+00  0.0000E+00  9.6203E+00  5.7920E+00
  2.5481E+00  0.0000E+00  1.6708E+01  5.8429E+00
  2.5162E+00  0.0000E+00  4.2229E+00  5.8565E+00
  2.4849E+00  0.0000E+00  1.0038E+01  5.8605E+00
  2.4542E+00  0.0000E+00  1.2255E+01  5.8744E+00
  2.4240E+00  0.0000E+00  1.5848E+01  5.9023E+00
  2.3944E+00  0.0000E+00  5.7815E+00  5.9216E+00
  2.3653E+00  0.0000E+00  1.3250E+01  5.9426E+00
  2.3368E+00  0.0000E+00  1.5836E+01  5.9663E+00
  2.3088E+00  0.0000E+00  2.3957E+01  5.9804E+00
  2.2812E+00  0.0000E+00  8.4633E+00  6.0012E+00
  2.2542E+00  0.0000E+00  1.6505E+01  6.0268E+00
  2.2277E+00  0.0000E+00  1.6287E+01  6.0568E+00
  2.2016E+00  0.0000E+00  1.3562E+01  6.0635E+00
  2.1759E+00  0.0000E+00  5.4686E+00  6.0890E+00
  2.1507E+00  0.0000E+00  1.3932E+01  6.0996E+00
  2.1260E+00  0.0000E+00  1.5738E+01  6.1212E+00
  2.1016E+00  0.0000E+00  2.6341E+01  6.1469E+00
  2.0777E+00  0.0000E+00  2.4079E+01  6.1646E+00
  2.0542E+00  0.0000E+00  1.8862E+01  6.1896E+00
  2.0311E+00  0.0000E+00  1.9028E+01  6.2031E+00
  2.0084E+00  0.0000E+00  1.8578E+01  6.2178E+00
  1.9860E+00  0.0000E+00  2.9259E+01  6.2592E+00
  1.9641E+00  0.0000E+00  9.0109E+00  6.2926E+00
  1.9424E+00  0.0000E+00  2.2598E+01  6.2728E+00
  1.9212E+00  0.0000E+00  2.6310E+00  6.3055E+00
  1.9003E+00  0.0000E+00  1.8381E+01  6.3283E+00
  1.8797E+00  0.0000E+00  1.7724E+01  6.3403E+00
  1.8595E+00  0.0000E+00  1.8627E+01  6.3719E+00
  1.8396E+00  0.0000E+00  1.5042E+01  6.3860E+00
  1.8200E+00  0.0000E+00  3.3706E+01  6.3863E+00
  1.8007E+00  0.0000E+00  1.1242E+01  6.4192E+00
  1.7817E+00  0.0000E+00  1.4588E+01  6.4710E+00
  1.7630E+00  0.0000E+00  5.3058E+00  6.4730E+00
  1.7446E+00  0.0000E+00  2.7362E+01  6.4962E+00
  1.7265E+00  0.0000E+00  2.9015E+01  6.5098E+00
  1.7087E+00  0.0000E+00  1.8061E+01  6.5390E+00
  1.6912E+00  0.0000E+00  1.8918E+01  6.5198E+00
  1.6739E+00  0.0000E+00  2.4534E+01  6.5738E+00
  1.6569E+00  0.0000E+00  1.6296E+01  6.5837E+00
  1.6401E+00  0.0000E+00  2.1462E+01  6.6130E+00
  1.6236E+00  0.0000E+00  2.0524E+01  6.6464E+00
  1.6074E+00  0.0000E+00  2.0011E+01  6.6731E+00
  1.5913E+00  0.0000E+00  1.7865E+01  6.6635E+00
  1.5756E+00  0.0000E+00  1.6760E+01  6.6793E+00
  1.5600E+00  0.0000E+00  2.1419E+01  6.7112E+00
  1.5447E+00  0.0000E+00  1.4949E+01  6.7380E+00
  1.5296E+00  0.0000E+00  1.8684E+01  6.7346E+00
  1.5148E+00  0.0000E+00  1.8210E+01  6.7535E+00
  1.5001E+00  0.0000E+00  1.6665E+01  6.7895E+00
  1.4857E+00  0.0000E+00  1.9774E+01  6.8124E+00
  1.4714E+00  0.0000E+00  2.5973E+01  6.8480E+00
  1.4574E+00  0.0000E+00  2.8193E+01  6.8423E+00
  1.4436E+00  0.0000E+00  1.6851E+01  6.8894E+00
  1.4299E+00  0.0000E+00  1.6186E+01  6.8920E+00
  1.4165E+00  0.0000E+00  3.5724E+00  6.9064E+00
  1.4032E+00  0.0000E+00  1.6164E+01  6.9156E+00
  1.3902E+00  0.0000E+00  1.3548E+01  6.9578E+00
  1.3773E+00  0.0000E+00  2.8962E+01  6.9789E+00
  1.3646E+00  0.0000E+00  2.7254E+01  6.9835E+00
  1.3520E+00  0.0000E+00  1.2495E+01  7.0209E+00
  1.3397E+00  0.0000E+00  2.4617E+01  7.0227E+00
  1.3275E+00  0.0000E+00  1.6073E+01  7.0619E+00
  1.3155E+00  0.0000E+00  1.9146E+01  7.0750E+00
  1.3036E+00  0.0000E+00  2.4596E+01  7.0918E+00
  1.2919E+00  0.0000E+00  1.9767E+01  7.1130E+00
  1.2803E+00  0.0000E+00  1.7809E+01  7.1328E+00
  1.2690E+00  0.0000E+00  1.3711E+01  7.1575E+00
  1.2577E+00  0.0000E+00  1.7670E+01  7.1621E+00
  1.2466E+00  0.0000E+00  1.0569E+01  7.2102E+00
  1.2357E+00  0.0000E+00  2.1822E+01  7.1982E+00
  1.2249E+00  0.0000E+00  2.2673E+01  7.2407E+00
  1.2142E+00  0.0000E+00  2.4555E+01  7.2199E+00
  1.2037E+00  0.0000E+00  1.4273E+01  7.2894E+00
  1.1933E+00  0.0000E+00  4.1044E+01  7.3170E+00
  1.1830E+00  0.0000E+00  1.7909E+01  7.3116E+00
  1.1729E+00  0.0000E+00  1.0680E+01  7.3486E+00
  1.1629E+00  0.0000E+00  2.8671E+01  7.3375E+00
  1.1531E+00  0.0000E+00  3.2733E+01  7.4027E+00
  1.1433E+00  0.0000E+00  1.8514E+01  7.4055E+00
  1.1329E+00  0.0000E+00  2.2310E+01  6.6151E+00
  1.1158E+00  0.0000E+00  1.9304E+01  5.2766E+00
  1.0973E+00  0.0000E+00  2.7397E+01  5.3197E+00
  1.0794E+00  0.0000E+00  2.0670E+01  5.3392E+00
  1.0618E+00  0.0000E+00  1.8548E+01  5.3686E+00
  1.0447E+00  0.0000E+00  1.9344E+01  5.4140E+00
  1.0280E+00  0.0000E+00  2.1934E+01  5.4493E+00
  1.0117E+00  0.0000E+00  2.0773E+01  5.4621E+00
  9.9577E-01  0.0000E+00  2.7590E+01  5.5130E+00
  9.8023E-01  0.0000E+00  1.7080E+01  5.5229E+00
  9.6504E-01  0.0000E+00  2.3659E+01  5.5656E+00
  9.5020E-01  0.0000E+00  1.7863E+01  5.6063E+00
  9.3570E-01  0.0000E+00  2.7646E+01  5.6336E+00
  9.2153E-01  0.0000E+00  2.5709E+01  5.6626E+00
  9.0768E-01  0.0000E+00  1.4510E+01  5.6912E+00
  8.9414E-01  0.0000E+00  1.9055E+01  5.7271E+00
  8.8090E-01  0.0000E+00  1.8354E+01  5.7568E+00
  8.6796E-01  0.0000E+00  1.9009E+01  5.7944E+00
  8.5529E-01  0.0000E+00  2.2962E+01  5.8225E+00
  8.4290E-01  0.0000E+00  7.3626E+00  5.8556E+00
  8.3078E-01  0.0000E+00  1.3574E+01  5.9154E+00
  8.1892E-01  0.0000E+00  2.1774E+01  5.9533E+00
  8.0731E-01  0.0000E+00  2.3558E+01  5.9840E+00
  7.9595E-01  0.0000E+00  1.3100E+01  6.0176E+00
  7.8482E-01  0.0000E+00  1.8832E+01  6.0641E+00
  7.7393E-01  0.0000E+00  9.5984E+00  6.0990E+00
  7.6326E-01  0.0000E+00  2.4687E+01  6.1344E+00
  7.5281E-01  0.0000E+00  2.1571E+01  6.1952E+00
  7.4257E-01  0.0000E+00  2.4817E+01  6.2190E+00
  7.3254E-01  0.0000E+00  3.3563E+01  6.2690E+00
  7.2271E-01  0.0000E+00  1.4350E+01  6.3293E+00
  7.1308E-01  0.0000E+00  2.3408E+01  6.3786E+00
  7.0364E-01  0.0000E+00  3.2578E+01  6.4083E+00
  6.9439E-01  0.0000E+00  2.7643E+01  6.4707E+00
  6.8532E-01  0.0000E+00  1.7711E+01  6.5053E+00
  6.7642E-01  0.0000E+00  2.8937E+01  6.5572E+00
  6.6770E-01  0.0000E+00  2.0108E+01  6.6066E+00
  6.5914E-01  0.0000E+00  3.2109E+01  6.6647E+00
  6.5075E-01  0.0000E+00  1.0123E+01  6.7023E+00
  6.4252E-01  0.0000E+00  2.2261E+01  6.7633E+00
  6.3444E-01  0.0000E+00  1.3536E+01  6.8257E+00
  6.2651E-01  0.0000E+00  2.0638E+01  6.8775E+00
  6.1873E-01  0.0000E+00  1.0943E+01  6.9341E+00
  6.1110E-01  0.0000E+00  2.6899E+01  6.9869E+00
  6.0360E-01  0.0000E+00  2.0553E+01  7.0606E+00
  5.9625E-01  0.0000E+00  1.4287E+01  7.1077E+00
  5.8902E-01  0.0000E+00  1.4961E+01  7.1816E+00
  5.8193E-01  0.0000E+00  1.9350E+01  7.2342E+00
  5.7496E-01  0.0000E+00  2.2231E+01  7.3561E+00
  5.6812E-01  0.0000E+00  1.8080E+01  7.3789E+00
  5.6140E-01  0.0000E+00  3.1135E+01  7.4388E+00
  5.5480E-01  0.0000E+00  2.5514E+01  7.5397E+00
  5.4831E-01  0.0000E+00  2.9053E+01  7.6194E+00
  5.4194E-01  0.0000E+00  2.9758E+01  7.7046E+00
  5.3568E-01  0.0000E+00  4.4080E+01  7.7501E+00
  5.2952E-01  0.0000E+00  2.4912E+01  7.8545E+00
  5.2347E-01  0.0000E+00  2.7007E+01  7.9331E+00
  5.1753E-01  0.0000E+00  1.5268E+01  8.0444E+00
  5.1168E-01  0.0000E+00  3.0714E+01  8.1011E+00
  5.0594E-01  0.0000E+00  2.0507E+01  8.2389E+00
  5.0029E-01  0.0000E+00  1.9585E+01  8.3034E+00
  4.9473E-01  0.0000E+00  2.6370E+01  8.4361E+00
  4.8926E-01  0.0000E+00  2.2405E+01  8.5609E+00
  4.8389E-01  0.0000E+00  3.5448E+01  8.6658E+00
  4.7860E-01  0.0000E+00  2.9102E+01  8.7617E+00
  4.7340E-01  0.0000E+00  2.4323E+01  8.8949E+00
  4.6829E-01  0.0000E+00  2.9971E+01  9.0485E+00
  4.6326E-01  0.0000E+00  1.3619E+01  9.2147E+00
  4.5830E-01  0.0000E+00  1.3090E+01  9.3735E+00
  4.5343E-01  0.0000E+00  3.7119E+01  9.4701E+00
  4.4863E-01  0.0000E+00  2.6842E+01  9.6952E+00
  4.4391E-01  0.0000E+00  3.0132E+01  9.8736E+00
  4.3927E-01  0.0000E+00  2.5342E+01  1.0002E+01
  4.3469E-01  0.0000E+00  3.1117E+01  1.0211E+01
  4.3019E-01  0.0000E+00  2.2518E+01  1.0429E+01
  4.2576E-01  0.0000E+00  4.2514E+01  1.0660E+01
  4.2139E-01  0.0000E+00  2.6752E+01  1.0859E+01
  4.1709E-01  0.0000E+00  1.5606E+01  1.1087E+01
  4.1286E-01  0.0000E+00  1.8390E+01  1.1368E+01
  4.0459E-01  0.0000E+00  3.0944E+01  1.1907E+01
  4.0054E-01  0.0000E+00  2.3278E+01  1.2204E+01
  3.9656E-01  0.0000E+00  4.1541E+01  1.2567E+01
  3.9263E-01  0.0000E+00  3.0757E+01  1.2835E+01
  3.8877E-01  0.0000E+00  1.1963E+01  1.3151E+01
  3.8496E-01  0.0000E+00  3.6961E+01  1.3558E+01
  3.8120E-01  0.0000E+00  3.2452E+01  1.4031E+01
  3.7750E-01  0.0000E+00  3.4573E+01  1.4465E+01
  3.7386E-01  0.0000E+00  8.5310E+00  1.4828E+01
  3.6672E-01  0.0000E+00  3.9166E+01  1.5975E+01
  3.6323E-01  0.0000E+00  3.9445E+01  1.6486E+01
  3.5979E-01  0.0000E+00  3.9749E+01  1.7087E+01
  3.5640E-01  0.0000E+00  2.9450E+01  1.7733E+01
  3.5305E-01  0.0000E+00  6.8222E-01  1.8486E+01
  3.4975E-01  0.0000E+00  2.1333E+01  1.9252E+01
  3.4650E-01  0.0000E+00  5.2717E+01  2.0003E+01
  3.4329E-01  0.0000E+00  2.4058E+01  2.1186E+01
  3.4013E-01  0.0000E+00  7.2531E+01  2.2216E+01
  3.3701E-01  0.0000E+00  6.0036E+01  2.3315E+01
  3.3393E-01  0.0000E+00  5.7388E+01  2.4446E+01
  3.3090E-01  0.0000E+00  2.4750E+01  2.5617E+01
#---------------------------------------------------
